Seconds,Bpm
1904-01-01 00:14:20.101984,100.0
1904-01-01 00:14:20.681984,103.44827586206897
1904-01-01 00:14:21.261984,103.44827586206897
1904-01-01 00:14:21.841984,103.44827586206897
1904-01-01 00:14:22.421984,103.44827586206897
1904-01-01 00:14:23.041984,96.7741935483871
1904-01-01 00:14:23.681984,93.75
1904-01-01 00:14:24.321984,93.75
1904-01-01 00:14:29.801984,100.0
1904-01-01 00:14:30.401984,100.0
1904-01-01 00:14:31.021984,96.7741935483871
1904-01-01 00:14:31.621984,100.0
1904-01-01 00:14:32.221984,100.0
1904-01-01 00:14:32.841984,96.7741935483871
1904-01-01 00:14:33.461984,96.7741935483871
1904-01-01 00:14:34.081984,96.7741935483871
1904-01-01 00:14:34.701984,96.7741935483871
1904-01-01 00:14:35.301984,100.0
1904-01-01 00:14:35.881984,103.44827586206897
1904-01-01 00:14:36.481984,100.0
1904-01-01 00:14:38.821984,103.44827586206897
1904-01-01 00:14:39.421984,100.0
1904-01-01 00:14:40.001984,103.44827586206897
1904-01-01 00:14:40.581984,103.44827586206897
1904-01-01 00:14:41.161984,103.44827586206897
1904-01-01 00:14:44.161984,100.0
1904-01-01 00:14:44.761984,100.0
1904-01-01 00:14:45.341984,103.44827586206897
1904-01-01 00:14:45.921984,103.44827586206897
1904-01-01 00:14:46.481984,107.14285714285714
1904-01-01 00:14:47.061984,103.44827586206897
1904-01-01 00:14:47.621984,107.14285714285714
1904-01-01 00:14:55.101984,107.14285714285714
1904-01-01 00:14:55.681984,103.44827586206897
1904-01-01 00:14:56.241984,107.14285714285714
1904-01-01 00:14:56.801984,107.14285714285714
1904-01-01 00:14:57.361984,107.14285714285714
1904-01-01 00:14:57.921984,107.14285714285714
1904-01-01 00:14:58.481984,107.14285714285714
1904-01-01 00:14:59.021984,111.11111111111111
1904-01-01 00:14:59.581984,107.14285714285714
1904-01-01 00:15:01.781984,111.11111111111111
1904-01-01 00:15:02.341984,107.14285714285714
1904-01-01 00:15:02.901984,107.14285714285714
1904-01-01 00:15:05.181984,96.7741935483871
1904-01-01 00:15:10.161984,103.44827586206897
1904-01-01 00:15:10.741984,103.44827586206897
1904-01-01 00:15:12.961984,107.14285714285714
1904-01-01 00:15:15.161984,107.14285714285714
1904-01-01 00:15:15.721984,107.14285714285714
1904-01-01 00:15:16.301984,103.44827586206897
1904-01-01 00:15:16.901984,100.0
1904-01-01 00:15:24.601984,96.7741935483871
1904-01-01 00:15:25.201984,100.0
1904-01-01 00:15:25.801984,100.0
1904-01-01 00:15:26.401984,100.0
1904-01-01 00:15:27.001984,100.0
1904-01-01 00:15:27.601984,100.0
1904-01-01 00:15:35.701984,100.0
1904-01-01 00:15:36.321984,96.7741935483871
1904-01-01 00:15:36.921984,100.0
1904-01-01 00:15:37.521984,100.0
1904-01-01 00:15:38.101984,103.44827586206897
1904-01-01 00:15:38.721984,96.7741935483871
1904-01-01 00:15:39.321984,100.0
1904-01-01 00:15:39.921984,100.0
1904-01-01 00:15:45.881984,100.0
1904-01-01 00:15:46.481984,100.0
1904-01-01 00:15:47.081984,100.0
1904-01-01 00:15:47.701984,96.7741935483871
1904-01-01 00:15:48.301984,100.0
1904-01-01 00:15:48.921984,96.7741935483871
1904-01-01 00:15:51.281984,103.44827586206897
1904-01-01 00:15:51.861984,103.44827586206897
1904-01-01 00:15:54.161984,103.44827586206897
1904-01-01 00:15:54.741984,103.44827586206897
1904-01-01 00:15:55.321984,103.44827586206897
1904-01-01 00:15:55.921984,100.0
1904-01-01 00:16:00.741984,100.0
1904-01-01 00:16:01.341984,100.0
1904-01-01 00:16:01.921984,103.44827586206897
1904-01-01 00:16:02.501984,103.44827586206897
1904-01-01 00:16:03.081984,103.44827586206897
1904-01-01 00:16:03.661984,103.44827586206897
1904-01-01 00:16:04.221984,107.14285714285714
1904-01-01 00:16:04.821984,100.0
1904-01-01 00:16:05.441984,96.7741935483871
1904-01-01 00:16:06.061984,96.7741935483871
1904-01-01 00:16:15.781984,103.44827586206897
1904-01-01 00:16:16.341984,107.14285714285714
1904-01-01 00:16:16.901984,107.14285714285714
1904-01-01 00:16:17.461984,107.14285714285714
1904-01-01 00:16:18.021984,107.14285714285714
1904-01-01 00:16:18.601984,103.44827586206897
1904-01-01 00:16:21.601984,100.0
1904-01-01 00:16:22.201984,100.0
1904-01-01 00:16:22.801984,100.0
1904-01-01 00:16:23.381984,103.44827586206897
1904-01-01 00:16:23.961984,103.44827586206897
1904-01-01 00:16:24.541984,103.44827586206897
1904-01-01 00:16:26.941984,100.0
1904-01-01 00:16:27.521984,103.44827586206897
1904-01-01 00:16:28.121984,100.0
1904-01-01 00:16:28.721984,100.0
1904-01-01 00:16:29.321984,100.0
1904-01-01 00:16:29.901984,103.44827586206897
1904-01-01 00:16:30.501984,100.0
1904-01-01 00:16:31.101984,100.0
1904-01-01 00:16:31.701984,100.0
1904-01-01 00:16:36.361984,107.14285714285714
1904-01-01 00:16:36.941984,103.44827586206897
1904-01-01 00:16:40.501984,100.0
1904-01-01 00:16:45.881984,100.0
1904-01-01 00:16:46.461984,103.44827586206897
1904-01-01 00:16:47.041984,103.44827586206897
1904-01-01 00:16:47.621984,103.44827586206897
1904-01-01 00:16:48.201984,103.44827586206897
1904-01-01 00:16:48.781984,103.44827586206897
1904-01-01 00:16:51.061984,107.14285714285714
1904-01-01 00:16:51.621984,107.14285714285714
1904-01-01 00:16:55.601984,103.44827586206897
1904-01-01 00:16:56.181984,103.44827586206897
1904-01-01 00:16:56.761984,103.44827586206897
1904-01-01 00:16:57.341984,103.44827586206897
1904-01-01 00:16:57.921984,103.44827586206897
1904-01-01 00:16:58.501984,103.44827586206897
1904-01-01 00:17:02.501984,107.14285714285714
1904-01-01 00:17:03.061984,107.14285714285714
1904-01-01 00:17:03.641984,103.44827586206897
1904-01-01 00:17:04.201984,107.14285714285714
1904-01-01 00:17:04.781984,103.44827586206897
1904-01-01 00:17:05.361984,103.44827586206897
1904-01-01 00:17:05.941984,103.44827586206897
1904-01-01 00:17:11.761984,107.14285714285714
1904-01-01 00:17:12.321984,107.14285714285714
1904-01-01 00:17:12.861984,111.11111111111111
1904-01-01 00:17:13.421984,107.14285714285714
1904-01-01 00:17:13.981984,107.14285714285714
1904-01-01 00:17:16.241984,103.44827586206897
1904-01-01 00:17:16.801984,107.14285714285714
1904-01-01 00:17:19.061984,107.14285714285714
1904-01-01 00:17:19.621984,107.14285714285714
1904-01-01 00:17:20.181984,107.14285714285714
1904-01-01 00:17:20.721984,111.11111111111111
1904-01-01 00:17:23.461984,107.14285714285714
1904-01-01 00:17:24.021984,107.14285714285714
1904-01-01 00:17:24.581984,107.14285714285714
1904-01-01 00:17:28.281984,200.0
1904-01-01 00:17:28.701984,142.85714285714286
1904-01-01 00:17:30.741984,200.0
1904-01-01 00:17:31.041984,200.0
1904-01-01 00:17:31.201984,200.0
1904-01-01 00:17:31.601984,150.0
1904-01-01 00:17:35.181984,200.0
1904-01-01 00:17:35.761984,103.44827586206897
1904-01-01 00:17:35.841984,200.0
1904-01-01 00:17:36.321984,125.0
1904-01-01 00:17:38.081984,200.0
1904-01-01 00:17:38.481984,150.0
1904-01-01 00:17:39.541984,115.38461538461539
1904-01-01 00:17:39.901984,166.66666666666666
1904-01-01 00:17:40.061984,200.0
1904-01-01 00:17:40.301984,200.0
1904-01-01 00:17:40.581984,200.0
1904-01-01 00:17:40.761984,200.0
1904-01-01 00:17:41.101984,176.47058823529412
1904-01-01 00:17:41.201984,200.0
1904-01-01 00:17:41.621984,142.85714285714286
1904-01-01 00:17:41.941984,187.5
1904-01-01 00:17:42.141984,200.0
1904-01-01 00:17:42.421984,200.0
1904-01-01 00:17:42.501984,200.0
1904-01-01 00:17:42.661984,200.0
1904-01-01 00:17:42.941984,200.0
1904-01-01 00:17:43.181984,200.0
1904-01-01 00:17:43.701984,115.38461538461539
1904-01-01 00:17:43.761984,200.0
1904-01-01 00:17:43.821984,200.0
1904-01-01 00:17:44.221984,150.0
1904-01-01 00:17:44.501984,200.0
1904-01-01 00:17:44.981984,157.89473684210526
1904-01-01 00:17:45.361984,157.89473684210526
1904-01-01 00:17:45.521984,200.0
1904-01-01 00:17:45.741984,200.0
1904-01-01 00:17:45.961984,200.0
1904-01-01 00:17:46.201984,200.0
1904-01-01 00:17:46.561984,166.66666666666666
1904-01-01 00:17:46.841984,200.0
1904-01-01 00:17:47.401984,200.0
1904-01-01 00:17:47.681984,200.0
1904-01-01 00:17:47.941984,200.0
1904-01-01 00:17:49.541984,111.11111111111111
1904-01-01 00:17:51.901984,200.0
1904-01-01 00:17:52.261984,166.66666666666666
1904-01-01 00:17:52.821984,107.14285714285714
1904-01-01 00:17:53.601984,200.0
1904-01-01 00:17:53.841984,200.0
1904-01-01 00:17:53.921984,200.0
1904-01-01 00:17:54.341984,142.85714285714286
1904-01-01 00:17:54.821984,125.0
1904-01-01 00:17:55.021984,200.0
1904-01-01 00:17:55.301984,200.0
1904-01-01 00:17:55.561984,200.0
1904-01-01 00:17:55.681984,200.0
1904-01-01 00:17:56.181984,120.0
1904-01-01 00:17:56.821984,93.75
1904-01-01 00:17:57.201984,200.0
1904-01-01 00:17:57.341984,200.0
1904-01-01 00:17:57.601984,200.0
1904-01-01 00:17:57.761984,200.0
1904-01-01 00:17:57.881984,200.0
1904-01-01 00:17:58.321984,136.36363636363637
1904-01-01 00:17:58.621984,200.0
1904-01-01 00:17:58.701984,200.0
1904-01-01 00:17:59.121984,142.85714285714286
1904-01-01 00:17:59.321984,200.0
1904-01-01 00:17:59.461984,200.0
1904-01-01 00:18:00.041984,103.44827586206897
1904-01-01 00:18:02.421984,100.0
1904-01-01 00:18:03.001984,103.44827586206897
1904-01-01 00:18:03.581984,103.44827586206897
1904-01-01 00:18:04.181984,100.0
1904-01-01 00:18:04.761984,103.44827586206897
1904-01-01 00:18:05.321984,107.14285714285714
1904-01-01 00:18:07.581984,107.14285714285714
1904-01-01 00:18:08.141984,107.14285714285714
1904-01-01 00:18:20.121984,115.38461538461539
1904-01-01 00:18:20.641984,115.38461538461539
1904-01-01 00:18:22.721984,115.38461538461539
1904-01-01 00:18:25.041984,103.44827586206897
1904-01-01 00:18:25.661984,96.7741935483871
1904-01-01 00:18:26.281984,96.7741935483871
1904-01-01 00:18:26.881984,100.0
1904-01-01 00:18:27.481984,100.0
1904-01-01 00:18:28.081984,100.0
1904-01-01 00:18:28.661984,103.44827586206897
1904-01-01 00:18:35.201984,115.38461538461539
1904-01-01 00:18:35.721984,115.38461538461539
1904-01-01 00:18:37.801984,111.11111111111111
1904-01-01 00:18:38.341984,111.11111111111111
1904-01-01 00:18:40.661984,100.0
1904-01-01 00:18:41.281984,96.7741935483871
1904-01-01 00:18:44.461984,96.7741935483871
1904-01-01 00:18:45.101984,93.75
1904-01-01 00:18:52.281984,100.0
1904-01-01 00:19:00.721984,93.75
1904-01-01 00:19:05.801984,93.75
1904-01-01 00:19:13.481984,111.11111111111111
1904-01-01 00:19:14.101984,96.7741935483871
1904-01-01 00:19:14.441984,176.47058823529412
1904-01-01 00:19:14.661984,200.0
1904-01-01 00:19:15.221984,107.14285714285714
1904-01-01 00:19:15.741984,115.38461538461539
1904-01-01 00:19:16.341984,100.0
1904-01-01 00:19:16.941984,100.0
1904-01-01 00:19:17.461984,115.38461538461539
1904-01-01 00:19:17.721984,200.0
1904-01-01 00:19:19.321984,200.0
1904-01-01 00:19:19.941984,96.7741935483871
1904-01-01 00:19:20.021984,200.0
1904-01-01 00:19:20.541984,115.38461538461539
1904-01-01 00:19:20.761984,200.0
1904-01-01 00:19:20.961984,200.0
1904-01-01 00:19:21.221984,200.0
1904-01-01 00:19:21.881984,166.66666666666666
1904-01-01 00:19:21.961984,200.0
1904-01-01 00:19:22.061984,200.0
1904-01-01 00:19:22.141984,200.0
1904-01-01 00:19:22.381984,200.0
1904-01-01 00:19:24.521984,96.7741935483871
1904-01-01 00:19:24.661984,200.0
1904-01-01 00:19:25.261984,200.0
1904-01-01 00:19:25.841984,103.44827586206897
1904-01-01 00:19:26.441984,100.0
1904-01-01 00:19:26.661984,200.0
1904-01-01 00:19:27.021984,166.66666666666666
1904-01-01 00:19:27.461984,200.0
1904-01-01 00:19:28.641984,200.0
1904-01-01 00:19:29.021984,157.89473684210526
1904-01-01 00:19:29.521984,120.0
1904-01-01 00:19:29.621984,200.0
1904-01-01 00:19:29.781984,200.0
1904-01-01 00:19:29.981984,200.0
1904-01-01 00:19:30.061984,200.0
1904-01-01 00:19:30.981984,200.0
1904-01-01 00:19:31.161984,200.0
1904-01-01 00:19:31.301984,200.0
1904-01-01 00:19:31.561984,200.0
1904-01-01 00:19:31.641984,200.0
1904-01-01 00:19:32.041984,150.0
1904-01-01 00:19:32.121984,200.0
1904-01-01 00:19:32.561984,136.36363636363637
1904-01-01 00:19:32.721984,200.0
1904-01-01 00:19:32.801984,200.0
1904-01-01 00:19:33.001984,200.0
1904-01-01 00:19:33.461984,200.0
1904-01-01 00:19:33.781984,187.5
1904-01-01 00:19:35.401984,200.0
1904-01-01 00:19:35.721984,187.5
1904-01-01 00:19:35.821984,200.0
1904-01-01 00:19:36.221984,150.0
1904-01-01 00:19:36.341984,200.0
1904-01-01 00:19:36.521984,200.0
1904-01-01 00:19:37.061984,111.11111111111111
1904-01-01 00:19:38.041984,115.38461538461539
1904-01-01 00:19:38.421984,157.89473684210526
1904-01-01 00:19:38.561984,200.0
1904-01-01 00:19:39.161984,100.0
1904-01-01 00:19:39.841984,200.0
1904-01-01 00:19:40.121984,200.0
1904-01-01 00:19:40.281984,200.0
1904-01-01 00:19:43.641984,107.14285714285714
1904-01-01 00:19:44.201984,107.14285714285714
1904-01-01 00:19:44.761984,107.14285714285714
1904-01-01 00:19:45.341984,103.44827586206897
1904-01-01 00:19:51.201984,103.44827586206897
1904-01-01 00:19:51.781984,103.44827586206897
1904-01-01 00:19:52.381984,100.0
1904-01-01 00:19:52.981984,100.0
1904-01-01 00:19:53.561984,103.44827586206897
1904-01-01 00:19:54.161984,100.0
1904-01-01 00:19:54.761984,100.0
1904-01-01 00:19:59.121984,100.0
1904-01-01 00:19:59.721984,100.0
1904-01-01 00:20:00.321984,100.0
1904-01-01 00:20:00.941984,96.7741935483871
1904-01-01 00:20:05.681984,103.44827586206897
1904-01-01 00:20:06.281984,100.0
1904-01-01 00:20:06.861984,103.44827586206897
1904-01-01 00:20:07.461984,100.0
1904-01-01 00:20:08.081984,96.7741935483871
1904-01-01 00:20:08.681984,100.0
1904-01-01 00:20:09.301984,96.7741935483871
1904-01-01 00:20:09.921984,96.7741935483871
1904-01-01 00:20:10.541984,96.7741935483871
1904-01-01 00:20:11.161984,96.7741935483871
1904-01-01 00:20:11.781984,96.7741935483871
1904-01-01 00:20:12.381984,100.0
1904-01-01 00:20:12.981984,100.0
1904-01-01 00:20:13.561984,103.44827586206897
1904-01-01 00:20:14.121984,107.14285714285714
1904-01-01 00:20:14.701984,103.44827586206897
1904-01-01 00:20:15.261984,107.14285714285714
1904-01-01 00:20:15.821984,107.14285714285714
1904-01-01 00:20:16.401984,103.44827586206897
1904-01-01 00:20:16.981984,103.44827586206897
1904-01-01 00:20:17.601984,96.7741935483871
1904-01-01 00:20:26.041984,96.7741935483871
1904-01-01 00:20:26.661984,96.7741935483871
1904-01-01 00:20:27.281984,96.7741935483871
1904-01-01 00:20:27.901984,96.7741935483871
1904-01-01 00:20:28.541984,93.75
1904-01-01 00:20:29.181984,93.75
1904-01-01 00:20:29.821984,93.75
1904-01-01 00:20:30.461984,93.75
1904-01-01 00:20:34.841984,200.0
1904-01-01 00:20:35.441984,100.0
1904-01-01 00:20:36.001984,107.14285714285714
1904-01-01 00:20:36.541984,150.0
1904-01-01 00:20:37.161984,200.0
1904-01-01 00:20:37.721984,107.14285714285714
1904-01-01 00:20:38.241984,115.38461538461539
1904-01-01 00:20:38.561984,187.5
1904-01-01 00:20:38.861984,200.0
1904-01-01 00:20:39.021984,200.0
1904-01-01 00:20:39.441984,200.0
1904-01-01 00:20:39.841984,150.0
1904-01-01 00:20:39.961984,200.0
1904-01-01 00:20:40.241984,200.0
1904-01-01 00:20:41.701984,200.0
1904-01-01 00:20:41.781984,200.0
1904-01-01 00:20:42.281984,120.0
1904-01-01 00:20:42.861984,103.44827586206897
1904-01-01 00:20:43.061984,200.0
1904-01-01 00:20:44.761984,125.0
1904-01-01 00:20:44.841984,200.0
1904-01-01 00:20:45.261984,142.85714285714286
1904-01-01 00:20:45.601984,176.47058823529412
1904-01-01 00:20:45.681984,200.0
1904-01-01 00:20:45.881984,200.0
1904-01-01 00:20:46.021984,200.0
1904-01-01 00:20:46.481984,130.43478260869566
1904-01-01 00:20:46.861984,157.89473684210526
1904-01-01 00:20:46.921984,200.0
1904-01-01 00:20:47.101984,200.0
1904-01-01 00:20:47.481984,157.89473684210526
1904-01-01 00:20:47.581984,200.0
1904-01-01 00:20:47.701984,200.0
1904-01-01 00:20:49.521984,100.0
1904-01-01 00:20:49.681984,200.0
1904-01-01 00:20:51.321984,120.0
1904-01-01 00:20:52.501984,200.0
1904-01-01 00:20:52.641984,200.0
1904-01-01 00:20:52.781984,200.0
1904-01-01 00:20:53.101984,187.5
1904-01-01 00:20:53.181984,200.0
1904-01-01 00:20:53.481984,200.0
1904-01-01 00:20:53.701984,200.0
1904-01-01 00:20:53.961984,200.0
1904-01-01 00:20:54.061984,200.0
1904-01-01 00:20:54.321984,200.0
1904-01-01 00:20:54.421984,200.0
1904-01-01 00:20:54.501984,200.0
1904-01-01 00:20:54.801984,200.0
1904-01-01 00:20:57.021984,200.0
1904-01-01 00:20:57.101984,200.0
1904-01-01 00:20:57.541984,136.36363636363637
1904-01-01 00:20:57.821984,200.0
1904-01-01 00:20:58.041984,200.0
1904-01-01 00:20:59.101984,136.36363636363637
1904-01-01 00:20:59.641984,111.11111111111111
1904-01-01 00:20:59.881984,200.0
1904-01-01 00:21:00.401984,115.38461538461539
1904-01-01 00:21:00.501984,200.0
1904-01-01 00:21:00.581984,200.0
1904-01-01 00:21:00.861984,200.0
1904-01-01 00:21:01.121984,200.0
1904-01-01 00:21:01.601984,125.0
1904-01-01 00:21:01.721984,200.0
1904-01-01 00:21:01.801984,200.0
1904-01-01 00:21:02.321984,115.38461538461539
1904-01-01 00:21:02.921984,100.0
1904-01-01 00:21:03.361984,136.36363636363637
1904-01-01 00:21:03.501984,200.0
1904-01-01 00:21:03.621984,200.0
1904-01-01 00:21:04.041984,142.85714285714286
1904-01-01 00:21:04.161984,200.0
1904-01-01 00:21:04.701984,111.11111111111111
1904-01-01 00:21:05.301984,100.0
1904-01-01 00:21:05.401984,200.0
1904-01-01 00:21:06.021984,200.0
1904-01-01 00:21:06.121984,200.0
1904-01-01 00:21:06.441984,187.5
1904-01-01 00:21:06.581984,200.0
1904-01-01 00:21:06.681984,200.0
1904-01-01 00:21:07.021984,176.47058823529412
1904-01-01 00:21:07.441984,142.85714285714286
1904-01-01 00:21:07.501984,200.0
1904-01-01 00:21:08.001984,120.0
1904-01-01 00:21:08.161984,200.0
1904-01-01 00:21:08.561984,150.0
1904-01-01 00:21:08.721984,200.0
1904-01-01 00:21:09.281984,107.14285714285714
1904-01-01 00:21:09.361984,200.0
1904-01-01 00:21:09.901984,111.11111111111111
1904-01-01 00:21:11.361984,142.85714285714286
1904-01-01 00:21:11.481984,200.0
1904-01-01 00:21:11.761984,200.0
1904-01-01 00:21:12.161984,150.0
1904-01-01 00:21:12.581984,142.85714285714286
1904-01-01 00:21:13.021984,136.36363636363637
1904-01-01 00:21:13.141984,200.0
1904-01-01 00:21:13.461984,187.5
1904-01-01 00:21:13.661984,200.0
1904-01-01 00:21:14.301984,200.0
1904-01-01 00:21:14.821984,115.38461538461539
1904-01-01 00:21:17.861984,130.43478260869566
1904-01-01 00:21:18.021984,200.0
1904-01-01 00:21:18.561984,111.11111111111111
1904-01-01 00:21:18.761984,200.0
1904-01-01 00:21:18.941984,200.0
1904-01-01 00:21:19.121984,200.0
1904-01-01 00:21:19.221984,200.0
1904-01-01 00:21:19.321984,200.0
1904-01-01 00:21:19.441984,200.0
1904-01-01 00:21:19.681984,200.0
1904-01-01 00:21:19.741984,200.0
1904-01-01 00:21:19.941984,200.0
1904-01-01 00:21:20.221984,200.0
1904-01-01 00:21:20.501984,200.0
1904-01-01 00:21:20.761984,200.0
1904-01-01 00:21:20.921984,200.0
1904-01-01 00:21:21.141984,200.0
1904-01-01 00:21:21.281984,200.0
1904-01-01 00:21:21.401984,200.0
1904-01-01 00:21:21.581984,200.0
1904-01-01 00:21:21.721984,200.0
1904-01-01 00:21:22.081984,166.66666666666666
1904-01-01 00:21:22.581984,120.0
1904-01-01 00:21:23.141984,200.0
1904-01-01 00:21:23.321984,200.0
1904-01-01 00:21:23.541984,200.0
1904-01-01 00:21:23.921984,157.89473684210526
1904-01-01 00:21:24.441984,115.38461538461539
1904-01-01 00:21:24.541984,200.0
1904-01-01 00:21:24.961984,142.85714285714286
1904-01-01 00:21:25.081984,200.0
1904-01-01 00:21:25.181984,200.0
1904-01-01 00:21:25.481984,200.0
1904-01-01 00:21:25.841984,166.66666666666666
1904-01-01 00:21:26.001984,200.0
1904-01-01 00:21:26.341984,176.47058823529412
1904-01-01 00:21:26.521984,200.0
1904-01-01 00:21:26.621984,200.0
1904-01-01 00:21:27.101984,125.0
1904-01-01 00:21:27.561984,130.43478260869566
1904-01-01 00:21:27.641984,200.0
1904-01-01 00:21:27.921984,200.0
1904-01-01 00:21:28.461984,200.0
1904-01-01 00:21:28.621984,200.0
1904-01-01 00:21:29.181984,107.14285714285714
1904-01-01 00:21:29.681984,120.0
1904-01-01 00:21:29.781984,200.0
1904-01-01 00:21:30.221984,136.36363636363637
1904-01-01 00:21:30.501984,200.0
1904-01-01 00:21:30.581984,200.0
1904-01-01 00:21:30.681984,200.0
1904-01-01 00:21:31.001984,187.5
1904-01-01 00:21:32.561984,200.0
1904-01-01 00:21:33.001984,200.0
1904-01-01 00:21:34.001984,111.11111111111111
1904-01-01 00:21:34.401984,150.0
1904-01-01 00:21:34.501984,200.0
1904-01-01 00:21:36.121984,200.0
1904-01-01 00:21:36.181984,200.0
1904-01-01 00:21:36.661984,125.0
1904-01-01 00:21:38.081984,157.89473684210526
1904-01-01 00:21:38.561984,125.0
1904-01-01 00:21:38.741984,200.0
1904-01-01 00:21:39.241984,120.0
1904-01-01 00:21:39.321984,200.0
1904-01-01 00:21:39.661984,176.47058823529412
1904-01-01 00:21:39.741984,200.0
1904-01-01 00:21:40.041984,200.0
1904-01-01 00:21:40.641984,142.85714285714286
1904-01-01 00:21:40.721984,200.0
1904-01-01 00:21:41.241984,115.38461538461539
1904-01-01 00:21:42.561984,200.0
1904-01-01 00:21:42.701984,200.0
1904-01-01 00:21:43.201984,120.0
1904-01-01 00:21:43.321984,200.0
1904-01-01 00:21:43.381984,200.0
1904-01-01 00:21:43.721984,176.47058823529412
1904-01-01 00:21:43.821984,200.0
1904-01-01 00:21:43.961984,200.0
1904-01-01 00:21:44.221984,200.0
1904-01-01 00:21:44.361984,200.0
1904-01-01 00:21:44.581984,200.0
1904-01-01 00:21:45.121984,111.11111111111111
1904-01-01 00:21:45.821984,107.14285714285714
1904-01-01 00:21:46.361984,111.11111111111111
1904-01-01 00:21:46.801984,136.36363636363637
1904-01-01 00:21:46.881984,200.0
1904-01-01 00:21:46.961984,200.0
1904-01-01 00:21:47.381984,142.85714285714286
1904-01-01 00:21:47.501984,200.0
1904-01-01 00:21:47.601984,200.0
1904-01-01 00:21:47.721984,200.0
1904-01-01 00:21:48.801984,200.0
1904-01-01 00:21:48.921984,200.0
1904-01-01 00:21:49.041984,200.0
1904-01-01 00:21:49.421984,157.89473684210526
1904-01-01 00:21:49.941984,115.38461538461539
1904-01-01 00:21:51.141984,200.0
1904-01-01 00:21:51.741984,100.0
1904-01-01 00:21:51.961984,200.0
1904-01-01 00:21:52.281984,187.5
1904-01-01 00:21:52.441984,200.0
1904-01-01 00:21:54.821984,200.0
1904-01-01 00:21:58.121984,100.0
1904-01-01 00:21:58.541984,142.85714285714286
1904-01-01 00:21:58.621984,200.0
1904-01-01 00:21:59.061984,136.36363636363637
1904-01-01 00:21:59.581984,115.38461538461539
1904-01-01 00:21:59.721984,200.0
1904-01-01 00:21:59.781984,200.0
1904-01-01 00:22:01.021984,200.0
1904-01-01 00:22:01.161984,200.0
1904-01-01 00:22:01.221984,200.0
1904-01-01 00:22:02.761984,120.0
1904-01-01 00:22:02.841984,200.0
1904-01-01 00:22:04.641984,200.0
1904-01-01 00:22:05.021984,157.89473684210526
1904-01-01 00:22:05.541984,115.38461538461539
1904-01-01 00:22:05.861984,187.5
1904-01-01 00:22:05.941984,200.0
1904-01-01 00:22:06.001984,200.0
1904-01-01 00:22:06.101984,200.0
1904-01-01 00:22:06.621984,115.38461538461539
1904-01-01 00:22:07.161984,111.11111111111111
1904-01-01 00:22:07.221984,200.0
1904-01-01 00:22:07.701984,125.0
1904-01-01 00:22:08.341984,93.75
1904-01-01 00:22:08.401984,200.0
1904-01-01 00:22:08.541984,200.0
1904-01-01 00:22:08.761984,200.0
1904-01-01 00:22:09.841984,200.0
1904-01-01 00:22:10.341984,120.0
1904-01-01 00:22:10.941984,100.0
1904-01-01 00:22:11.561984,96.7741935483871
1904-01-01 00:22:11.841984,200.0
1904-01-01 00:22:11.961984,200.0
1904-01-01 00:22:12.041984,200.0
1904-01-01 00:22:12.161984,200.0
1904-01-01 00:22:12.441984,200.0
1904-01-01 00:22:13.161984,100.0
1904-01-01 00:22:13.241984,200.0
1904-01-01 00:22:13.661984,142.85714285714286
1904-01-01 00:22:13.941984,200.0
1904-01-01 00:22:14.021984,200.0
1904-01-01 00:22:14.101984,200.0
1904-01-01 00:22:14.221984,200.0
1904-01-01 00:22:14.361984,200.0
1904-01-01 00:22:14.561984,200.0
1904-01-01 00:22:15.341984,130.43478260869566
1904-01-01 00:22:15.681984,176.47058823529412
1904-01-01 00:22:16.101984,142.85714285714286
1904-01-01 00:22:16.481984,157.89473684210526
1904-01-01 00:22:16.561984,200.0
1904-01-01 00:22:16.641984,200.0
1904-01-01 00:22:17.681984,200.0
1904-01-01 00:22:17.861984,200.0
1904-01-01 00:22:17.981984,200.0
1904-01-01 00:22:18.041984,200.0
1904-01-01 00:22:18.181984,200.0
1904-01-01 00:22:18.481984,200.0
1904-01-01 00:22:18.561984,200.0
1904-01-01 00:22:18.781984,200.0
1904-01-01 00:22:18.861984,200.0
1904-01-01 00:22:19.201984,176.47058823529412
1904-01-01 00:22:19.281984,200.0
1904-01-01 00:22:19.401984,200.0
1904-01-01 00:22:19.701984,200.0
1904-01-01 00:22:20.101984,150.0
1904-01-01 00:22:20.721984,200.0
1904-01-01 00:22:20.921984,200.0
1904-01-01 00:22:21.281984,166.66666666666666
1904-01-01 00:22:21.681984,200.0
1904-01-01 00:22:22.101984,142.85714285714286
1904-01-01 00:22:23.321984,200.0
1904-01-01 00:22:23.741984,142.85714285714286
1904-01-01 00:22:24.081984,200.0
1904-01-01 00:22:24.941984,200.0
1904-01-01 00:22:25.181984,200.0
1904-01-01 00:22:25.301984,200.0
1904-01-01 00:22:25.401984,200.0
1904-01-01 00:22:25.701984,200.0
1904-01-01 00:22:25.981984,200.0
1904-01-01 00:22:26.501984,115.38461538461539
1904-01-01 00:22:26.621984,200.0
1904-01-01 00:22:26.901984,200.0
1904-01-01 00:22:27.201984,200.0
1904-01-01 00:22:27.341984,200.0
1904-01-01 00:22:27.561984,200.0
1904-01-01 00:22:27.821984,200.0
1904-01-01 00:22:28.221984,150.0
1904-01-01 00:22:28.281984,200.0
1904-01-01 00:22:28.401984,200.0
1904-01-01 00:22:28.521984,200.0
1904-01-01 00:22:28.721984,200.0
1904-01-01 00:22:30.181984,200.0
1904-01-01 00:22:30.241984,200.0
1904-01-01 00:22:30.441984,200.0
1904-01-01 00:22:30.701984,200.0
1904-01-01 00:22:31.101984,150.0
1904-01-01 00:22:31.581984,125.0
1904-01-01 00:22:31.781984,200.0
1904-01-01 00:22:32.241984,130.43478260869566
1904-01-01 00:22:32.301984,200.0
1904-01-01 00:22:32.381984,200.0
1904-01-01 00:22:32.481984,200.0
1904-01-01 00:22:33.121984,93.75
1904-01-01 00:22:33.341984,200.0
1904-01-01 00:22:33.421984,200.0
1904-01-01 00:22:33.541984,200.0
1904-01-01 00:22:33.661984,200.0
1904-01-01 00:22:33.881984,200.0
1904-01-01 00:22:33.981984,200.0
1904-01-01 00:22:34.241984,200.0
1904-01-01 00:22:34.781984,111.11111111111111
1904-01-01 00:22:35.841984,200.0
1904-01-01 00:22:35.961984,200.0
1904-01-01 00:22:36.381984,200.0
1904-01-01 00:22:36.541984,200.0
1904-01-01 00:22:37.081984,111.11111111111111
1904-01-01 00:22:37.181984,200.0
1904-01-01 00:22:37.281984,200.0
1904-01-01 00:22:37.601984,187.5
1904-01-01 00:22:38.801984,200.0
1904-01-01 00:22:38.861984,200.0
1904-01-01 00:22:42.481984,103.44827586206897
1904-01-01 00:22:43.021984,111.11111111111111
1904-01-01 00:22:43.081984,200.0
1904-01-01 00:22:43.161984,200.0
1904-01-01 00:22:43.561984,150.0
1904-01-01 00:22:43.961984,200.0
1904-01-01 00:22:44.261984,200.0
1904-01-01 00:22:44.341984,200.0
1904-01-01 00:22:44.761984,142.85714285714286
1904-01-01 00:22:45.501984,107.14285714285714
1904-01-01 00:22:45.681984,200.0
1904-01-01 00:22:46.261984,200.0
1904-01-01 00:22:46.781984,200.0
1904-01-01 00:22:46.901984,200.0
1904-01-01 00:22:47.201984,200.0
1904-01-01 00:22:47.301984,200.0
1904-01-01 00:22:47.501984,200.0
1904-01-01 00:22:47.821984,187.5
1904-01-01 00:22:47.941984,200.0
1904-01-01 00:22:48.141984,200.0
1904-01-01 00:22:48.341984,200.0
1904-01-01 00:22:48.841984,120.0
1904-01-01 00:22:48.921984,200.0
1904-01-01 00:22:49.001984,200.0
1904-01-01 00:22:49.321984,187.5
1904-01-01 00:22:49.921984,200.0
1904-01-01 00:22:50.161984,200.0
1904-01-01 00:22:50.421984,200.0
1904-01-01 00:22:50.601984,200.0
1904-01-01 00:22:50.921984,187.5
1904-01-01 00:22:50.981984,200.0
1904-01-01 00:22:51.061984,200.0
1904-01-01 00:22:51.421984,166.66666666666666
1904-01-01 00:22:51.581984,200.0
1904-01-01 00:22:51.661984,200.0
1904-01-01 00:22:52.061984,150.0
1904-01-01 00:22:52.161984,200.0
1904-01-01 00:22:52.441984,200.0
1904-01-01 00:22:52.761984,187.5
1904-01-01 00:22:52.981984,200.0
1904-01-01 00:22:53.121984,200.0
1904-01-01 00:22:53.661984,111.11111111111111
1904-01-01 00:22:54.181984,200.0
1904-01-01 00:22:54.661984,125.0
1904-01-01 00:22:54.961984,200.0
1904-01-01 00:22:55.061984,200.0
1904-01-01 00:22:55.201984,200.0
1904-01-01 00:22:55.301984,200.0
1904-01-01 00:22:55.721984,142.85714285714286
1904-01-01 00:22:55.881984,200.0
1904-01-01 00:22:56.101984,200.0
1904-01-01 00:22:56.401984,200.0
1904-01-01 00:22:56.461984,200.0
1904-01-01 00:22:57.781984,200.0
1904-01-01 00:22:58.041984,200.0
1904-01-01 00:22:58.201984,200.0
1904-01-01 00:22:58.441984,200.0
1904-01-01 00:22:58.561984,200.0
1904-01-01 00:22:58.701984,200.0
1904-01-01 00:22:58.781984,200.0
1904-01-01 00:22:58.941984,200.0
1904-01-01 00:22:59.221984,200.0
1904-01-01 00:22:59.861984,93.75
1904-01-01 00:22:59.961984,200.0
1904-01-01 00:23:00.381984,200.0
1904-01-01 00:23:00.781984,150.0
1904-01-01 00:23:01.141984,166.66666666666666
1904-01-01 00:23:01.261984,200.0
1904-01-01 00:23:01.841984,200.0
1904-01-01 00:23:01.981984,200.0
1904-01-01 00:23:02.201984,200.0
1904-01-01 00:23:02.301984,200.0
1904-01-01 00:23:02.381984,200.0
1904-01-01 00:23:02.721984,176.47058823529412
1904-01-01 00:23:03.141984,142.85714285714286
1904-01-01 00:23:03.201984,200.0
1904-01-01 00:23:03.361984,200.0
1904-01-01 00:23:03.481984,200.0
1904-01-01 00:23:03.881984,150.0
1904-01-01 00:23:04.301984,142.85714285714286
1904-01-01 00:23:04.581984,200.0
1904-01-01 00:23:04.641984,200.0
1904-01-01 00:23:05.801984,157.89473684210526
1904-01-01 00:23:06.341984,150.0
1904-01-01 00:23:06.481984,200.0
1904-01-01 00:23:06.841984,166.66666666666666
1904-01-01 00:23:07.081984,200.0
1904-01-01 00:23:07.341984,200.0
1904-01-01 00:23:07.501984,200.0
1904-01-01 00:23:07.721984,200.0
1904-01-01 00:23:08.001984,200.0
1904-01-01 00:23:08.101984,200.0
1904-01-01 00:23:08.241984,200.0
1904-01-01 00:23:08.461984,200.0
1904-01-01 00:23:08.901984,136.36363636363637
1904-01-01 00:23:09.201984,200.0
1904-01-01 00:23:09.261984,200.0
1904-01-01 00:23:09.541984,200.0
1904-01-01 00:23:09.661984,200.0
1904-01-01 00:23:09.941984,200.0
1904-01-01 00:23:10.061984,200.0
1904-01-01 00:23:10.221984,200.0
1904-01-01 00:23:10.361984,200.0
1904-01-01 00:23:10.561984,200.0
1904-01-01 00:23:10.841984,200.0
1904-01-01 00:23:11.121984,200.0
1904-01-01 00:23:11.561984,136.36363636363637
1904-01-01 00:23:11.801984,200.0
1904-01-01 00:23:12.061984,200.0
1904-01-01 00:23:12.161984,200.0
1904-01-01 00:23:12.701984,111.11111111111111
1904-01-01 00:23:12.861984,200.0
1904-01-01 00:23:13.301984,136.36363636363637
1904-01-01 00:23:13.461984,200.0
1904-01-01 00:23:13.721984,200.0
1904-01-01 00:23:14.121984,150.0
1904-01-01 00:23:14.581984,130.43478260869566
1904-01-01 00:23:14.901984,187.5
1904-01-01 00:23:14.981984,200.0
1904-01-01 00:23:15.121984,200.0
1904-01-01 00:23:15.441984,187.5
1904-01-01 00:23:15.941984,200.0
1904-01-01 00:23:16.021984,200.0
1904-01-01 00:23:16.561984,111.11111111111111
1904-01-01 00:23:16.621984,200.0
1904-01-01 00:23:16.761984,200.0
1904-01-01 00:23:17.821984,200.0
1904-01-01 00:23:17.961984,200.0
1904-01-01 00:23:18.241984,200.0
1904-01-01 00:23:18.501984,200.0
1904-01-01 00:23:18.861984,166.66666666666666
1904-01-01 00:23:18.921984,200.0
1904-01-01 00:23:19.401984,125.0
1904-01-01 00:23:20.121984,200.0
1904-01-01 00:23:20.201984,200.0
1904-01-01 00:23:20.321984,200.0
1904-01-01 00:23:21.401984,200.0
1904-01-01 00:23:21.501984,200.0
1904-01-01 00:23:21.981984,200.0
1904-01-01 00:23:22.081984,200.0
1904-01-01 00:23:22.261984,200.0
1904-01-01 00:23:22.341984,200.0
1904-01-01 00:23:22.481984,200.0
1904-01-01 00:23:22.601984,200.0
1904-01-01 00:23:22.981984,157.89473684210526
1904-01-01 00:23:23.401984,142.85714285714286
1904-01-01 00:23:23.521984,200.0
1904-01-01 00:23:23.661984,200.0
1904-01-01 00:23:23.901984,200.0
1904-01-01 00:23:24.181984,200.0
1904-01-01 00:23:24.581984,150.0
1904-01-01 00:23:24.961984,200.0
1904-01-01 00:23:25.081984,200.0
1904-01-01 00:23:25.261984,200.0
1904-01-01 00:23:25.361984,200.0
1904-01-01 00:23:25.441984,200.0
1904-01-01 00:23:25.781984,176.47058823529412
1904-01-01 00:23:26.261984,157.89473684210526
1904-01-01 00:23:26.561984,200.0
1904-01-01 00:23:26.661984,200.0
1904-01-01 00:23:26.721984,200.0
1904-01-01 00:23:26.881984,200.0
1904-01-01 00:23:26.961984,200.0
1904-01-01 00:23:27.021984,200.0
1904-01-01 00:23:27.241984,200.0
1904-01-01 00:23:27.341984,200.0
1904-01-01 00:23:27.901984,107.14285714285714
1904-01-01 00:23:28.021984,200.0
1904-01-01 00:23:28.261984,200.0
1904-01-01 00:23:28.501984,200.0
1904-01-01 00:23:28.881984,157.89473684210526
1904-01-01 00:23:29.041984,200.0
1904-01-01 00:23:29.141984,200.0
1904-01-01 00:23:29.261984,200.0
1904-01-01 00:23:29.421984,200.0
1904-01-01 00:23:29.561984,200.0
1904-01-01 00:23:29.661984,200.0
1904-01-01 00:23:30.961984,200.0
1904-01-01 00:23:31.481984,200.0
1904-01-01 00:23:31.581984,200.0
1904-01-01 00:23:31.741984,200.0
1904-01-01 00:23:31.801984,200.0
1904-01-01 00:23:32.101984,200.0
1904-01-01 00:23:32.501984,200.0
1904-01-01 00:23:32.701984,200.0
1904-01-01 00:23:32.781984,200.0
1904-01-01 00:23:33.241984,130.43478260869566
1904-01-01 00:23:33.341984,200.0
1904-01-01 00:23:33.741984,150.0
1904-01-01 00:23:34.541984,200.0
1904-01-01 00:23:34.661984,200.0
1904-01-01 00:23:34.821984,200.0
1904-01-01 00:23:34.961984,200.0
1904-01-01 00:23:35.301984,176.47058823529412
1904-01-01 00:23:35.441984,200.0
1904-01-01 00:23:35.521984,200.0
1904-01-01 00:23:35.681984,200.0
1904-01-01 00:23:36.161984,125.0
1904-01-01 00:23:36.801984,200.0
1904-01-01 00:23:37.741984,200.0
1904-01-01 00:23:37.801984,200.0
1904-01-01 00:23:37.901984,200.0
1904-01-01 00:23:38.141984,200.0
1904-01-01 00:23:38.301984,200.0
1904-01-01 00:23:38.541984,200.0
1904-01-01 00:23:39.001984,130.43478260869566
1904-01-01 00:23:39.221984,200.0
1904-01-01 00:23:39.341984,200.0
1904-01-01 00:23:39.721984,157.89473684210526
1904-01-01 00:23:39.881984,200.0
1904-01-01 00:23:40.001984,200.0
1904-01-01 00:23:40.161984,200.0
1904-01-01 00:23:40.221984,200.0
1904-01-01 00:23:40.421984,200.0
1904-01-01 00:23:40.501984,200.0
1904-01-01 00:23:40.821984,187.5
1904-01-01 00:23:41.021984,200.0
1904-01-01 00:23:41.361984,176.47058823529412
1904-01-01 00:23:42.421984,200.0
1904-01-01 00:23:42.781984,166.66666666666666
1904-01-01 00:23:42.861984,200.0
1904-01-01 00:23:42.941984,200.0
1904-01-01 00:23:43.381984,136.36363636363637
1904-01-01 00:23:43.801984,142.85714285714286
1904-01-01 00:23:43.861984,200.0
1904-01-01 00:23:44.101984,200.0
1904-01-01 00:23:45.181984,176.47058823529412
1904-01-01 00:23:45.861984,107.14285714285714
1904-01-01 00:23:46.161984,200.0
1904-01-01 00:23:46.341984,200.0
1904-01-01 00:23:46.501984,200.0
1904-01-01 00:23:46.921984,142.85714285714286
1904-01-01 00:23:47.081984,200.0
1904-01-01 00:23:47.561984,125.0
1904-01-01 00:23:48.041984,157.89473684210526
1904-01-01 00:23:48.401984,166.66666666666666
1904-01-01 00:23:48.461984,200.0
1904-01-01 00:23:48.561984,200.0
1904-01-01 00:23:48.921984,166.66666666666666
1904-01-01 00:23:49.141984,200.0
1904-01-01 00:23:49.541984,150.0
1904-01-01 00:23:50.141984,130.43478260869566
1904-01-01 00:23:50.221984,200.0
1904-01-01 00:23:50.781984,107.14285714285714
1904-01-01 00:23:50.901984,200.0
1904-01-01 00:23:51.161984,200.0
1904-01-01 00:23:51.421984,200.0
1904-01-01 00:23:51.661984,200.0
1904-01-01 00:23:51.961984,200.0
1904-01-01 00:23:52.301984,176.47058823529412
1904-01-01 00:23:52.601984,200.0
1904-01-01 00:23:52.841984,200.0
1904-01-01 00:23:53.041984,200.0
1904-01-01 00:23:53.461984,142.85714285714286
1904-01-01 00:23:53.841984,157.89473684210526
1904-01-01 00:23:54.181984,176.47058823529412
1904-01-01 00:23:54.681984,120.0
1904-01-01 00:23:55.301984,96.7741935483871
1904-01-01 00:23:55.581984,200.0
1904-01-01 00:23:55.841984,200.0
1904-01-01 00:23:58.141984,200.0
1904-01-01 00:23:58.621984,125.0
1904-01-01 00:23:58.901984,200.0
1904-01-01 00:23:59.121984,200.0
1904-01-01 00:23:59.341984,200.0
1904-01-01 00:23:59.801984,130.43478260869566
1904-01-01 00:24:00.221984,200.0
1904-01-01 00:24:00.301984,200.0
1904-01-01 00:24:00.941984,93.75
1904-01-01 00:24:01.361984,142.85714285714286
1904-01-01 00:24:01.941984,103.44827586206897
1904-01-01 00:24:02.121984,200.0
1904-01-01 00:24:02.521984,150.0
1904-01-01 00:24:02.601984,200.0
1904-01-01 00:24:02.861984,200.0
1904-01-01 00:24:02.981984,200.0
1904-01-01 00:24:03.081984,200.0
1904-01-01 00:24:03.321984,200.0
1904-01-01 00:24:03.401984,200.0
1904-01-01 00:24:03.521984,200.0
1904-01-01 00:24:03.781984,200.0
1904-01-01 00:24:03.881984,200.0
1904-01-01 00:24:04.201984,187.5
1904-01-01 00:24:04.481984,200.0
1904-01-01 00:24:04.561984,200.0
1904-01-01 00:24:04.761984,200.0
1904-01-01 00:24:04.921984,200.0
1904-01-01 00:24:05.301984,157.89473684210526
1904-01-01 00:24:05.561984,200.0
1904-01-01 00:24:07.501984,125.0
1904-01-01 00:24:08.081984,103.44827586206897
1904-01-01 00:24:08.661984,103.44827586206897
1904-01-01 00:24:12.041984,111.11111111111111
1904-01-01 00:24:14.141984,115.38461538461539
1904-01-01 00:24:14.681984,111.11111111111111
1904-01-01 00:24:16.941984,103.44827586206897
1904-01-01 00:24:17.561984,96.7741935483871
1904-01-01 00:24:18.181984,96.7741935483871
1904-01-01 00:24:18.781984,100.0
1904-01-01 00:24:19.361984,103.44827586206897
1904-01-01 00:24:19.921984,107.14285714285714
1904-01-01 00:24:25.321984,111.11111111111111
1904-01-01 00:24:33.141984,115.38461538461539
1904-01-01 00:24:33.681984,111.11111111111111
1904-01-01 00:24:35.941984,96.7741935483871
1904-01-01 00:24:36.581984,93.75
1904-01-01 00:24:39.801984,93.75
1904-01-01 00:24:43.421984,100.0
1904-01-01 00:24:44.021984,100.0
1904-01-01 00:24:44.641984,96.7741935483871
1904-01-01 00:24:45.241984,100.0
1904-01-01 00:24:45.841984,100.0
1904-01-01 00:24:46.441984,100.0
1904-01-01 00:24:47.021984,103.44827586206897
1904-01-01 00:24:47.601984,103.44827586206897
1904-01-01 00:24:48.181984,103.44827586206897
1904-01-01 00:24:48.741984,107.14285714285714
1904-01-01 00:24:54.441984,107.14285714285714
1904-01-01 00:24:58.401984,107.14285714285714
1904-01-01 00:24:58.981984,103.44827586206897
1904-01-01 00:24:59.561984,103.44827586206897
1904-01-01 00:25:00.121984,107.14285714285714
1904-01-01 00:25:00.701984,103.44827586206897
1904-01-01 00:25:02.961984,107.14285714285714
1904-01-01 00:25:10.461984,200.0
1904-01-01 00:25:10.781984,187.5
1904-01-01 00:25:10.921984,200.0
1904-01-01 00:25:11.201984,200.0
1904-01-01 00:25:11.601984,150.0
1904-01-01 00:25:12.821984,130.43478260869566
1904-01-01 00:25:13.001984,200.0
1904-01-01 00:25:13.121984,200.0
1904-01-01 00:25:13.281984,200.0
1904-01-01 00:25:13.401984,200.0
1904-01-01 00:25:14.401984,200.0
1904-01-01 00:25:14.481984,200.0
1904-01-01 00:25:14.741984,200.0
1904-01-01 00:25:15.641984,200.0
1904-01-01 00:25:15.761984,200.0
1904-01-01 00:25:16.121984,166.66666666666666
1904-01-01 00:25:16.221984,200.0
1904-01-01 00:25:16.281984,200.0
1904-01-01 00:25:16.481984,200.0
1904-01-01 00:25:17.441984,107.14285714285714
1904-01-01 00:25:17.541984,200.0
1904-01-01 00:25:18.001984,130.43478260869566
1904-01-01 00:25:18.581984,200.0
1904-01-01 00:25:18.761984,200.0
1904-01-01 00:25:19.081984,187.5
1904-01-01 00:25:19.521984,136.36363636363637
1904-01-01 00:25:19.681984,200.0
1904-01-01 00:25:19.781984,200.0
1904-01-01 00:25:20.061984,200.0
1904-01-01 00:25:20.161984,200.0
1904-01-01 00:25:20.221984,200.0
1904-01-01 00:25:20.801984,200.0
1904-01-01 00:25:21.001984,200.0
1904-01-01 00:25:21.341984,200.0
1904-01-01 00:25:21.401984,200.0
1904-01-01 00:25:21.461984,200.0
1904-01-01 00:25:22.041984,103.44827586206897
1904-01-01 00:25:22.121984,200.0
1904-01-01 00:25:22.281984,200.0
1904-01-01 00:25:22.441984,200.0
1904-01-01 00:25:22.541984,200.0
1904-01-01 00:25:22.621984,200.0
1904-01-01 00:25:23.001984,157.89473684210526
1904-01-01 00:25:23.181984,200.0
1904-01-01 00:25:23.281984,200.0
1904-01-01 00:25:23.341984,200.0
1904-01-01 00:25:23.461984,200.0
1904-01-01 00:25:23.661984,200.0
1904-01-01 00:25:24.421984,96.7741935483871
1904-01-01 00:25:24.761984,200.0
1904-01-01 00:25:24.921984,200.0
1904-01-01 00:25:25.081984,200.0
1904-01-01 00:25:25.181984,200.0
1904-01-01 00:25:25.301984,200.0
1904-01-01 00:25:25.441984,200.0
1904-01-01 00:25:25.861984,142.85714285714286
1904-01-01 00:25:26.081984,200.0
1904-01-01 00:25:26.461984,157.89473684210526
1904-01-01 00:25:26.721984,200.0
1904-01-01 00:25:27.101984,157.89473684210526
1904-01-01 00:25:27.361984,200.0
1904-01-01 00:25:27.881984,115.38461538461539
1904-01-01 00:25:28.201984,187.5
1904-01-01 00:25:28.301984,200.0
1904-01-01 00:25:28.461984,200.0
1904-01-01 00:25:28.721984,200.0
1904-01-01 00:25:29.081984,200.0
1904-01-01 00:25:29.141984,200.0
1904-01-01 00:25:29.441984,200.0
1904-01-01 00:25:29.581984,200.0
1904-01-01 00:25:29.841984,200.0
1904-01-01 00:25:29.961984,200.0
1904-01-01 00:25:30.101984,200.0
1904-01-01 00:25:30.241984,200.0
1904-01-01 00:25:30.701984,130.43478260869566
1904-01-01 00:25:30.981984,200.0
1904-01-01 00:25:31.261984,200.0
1904-01-01 00:25:31.381984,200.0
1904-01-01 00:25:31.481984,200.0
1904-01-01 00:25:31.901984,142.85714285714286
1904-01-01 00:25:32.621984,200.0
1904-01-01 00:25:32.841984,200.0
1904-01-01 00:25:32.901984,200.0
1904-01-01 00:25:33.281984,157.89473684210526
1904-01-01 00:25:33.481984,200.0
1904-01-01 00:25:33.841984,166.66666666666666
1904-01-01 00:25:34.041984,200.0
1904-01-01 00:25:34.941984,166.66666666666666
1904-01-01 00:25:35.541984,100.0
1904-01-01 00:25:36.141984,100.0
1904-01-01 00:25:36.741984,100.0
1904-01-01 00:25:37.341984,100.0
1904-01-01 00:25:37.781984,136.36363636363637
1904-01-01 00:25:37.941984,200.0
1904-01-01 00:25:38.541984,100.0
1904-01-01 00:25:39.121984,103.44827586206897
1904-01-01 00:25:40.301984,103.44827586206897
1904-01-01 00:25:40.881984,103.44827586206897
1904-01-01 00:25:41.461984,103.44827586206897
1904-01-01 00:25:42.061984,100.0
1904-01-01 00:25:44.501984,96.7741935483871
1904-01-01 00:25:45.121984,96.7741935483871
1904-01-01 00:25:45.741984,96.7741935483871
1904-01-01 00:25:46.341984,100.0
1904-01-01 00:25:48.741984,100.0
1904-01-01 00:25:49.341984,100.0
1904-01-01 00:25:49.941984,100.0
1904-01-01 00:25:50.561984,96.7741935483871
1904-01-01 00:25:51.181984,96.7741935483871
1904-01-01 00:25:51.801984,96.7741935483871
1904-01-01 00:25:52.401984,100.0
1904-01-01 00:25:53.021984,96.7741935483871
1904-01-01 00:25:53.621984,100.0
1904-01-01 00:25:54.201984,103.44827586206897
1904-01-01 00:25:54.781984,103.44827586206897
1904-01-01 00:25:55.361984,103.44827586206897
1904-01-01 00:25:55.941984,103.44827586206897
1904-01-01 00:25:56.521984,103.44827586206897
1904-01-01 00:25:57.101984,103.44827586206897
1904-01-01 00:26:00.141984,93.75
1904-01-01 00:26:00.761984,96.7741935483871
1904-01-01 00:26:04.381984,103.44827586206897
1904-01-01 00:26:04.961984,103.44827586206897
1904-01-01 00:26:05.541984,103.44827586206897
1904-01-01 00:26:06.121984,103.44827586206897
1904-01-01 00:26:06.701984,103.44827586206897
1904-01-01 00:26:07.281984,103.44827586206897
1904-01-01 00:26:08.921984,166.66666666666666
1904-01-01 00:26:08.981984,200.0
1904-01-01 00:26:09.121984,200.0
1904-01-01 00:26:09.581984,130.43478260869566
1904-01-01 00:26:10.181984,200.0
1904-01-01 00:26:10.741984,107.14285714285714
1904-01-01 00:26:11.301984,200.0
1904-01-01 00:26:11.381984,200.0
1904-01-01 00:26:11.761984,157.89473684210526
1904-01-01 00:26:11.981984,200.0
1904-01-01 00:26:12.601984,96.7741935483871
1904-01-01 00:26:12.941984,176.47058823529412
1904-01-01 00:26:13.021984,200.0
1904-01-01 00:26:13.181984,200.0
1904-01-01 00:26:13.241984,200.0
1904-01-01 00:26:13.321984,200.0
1904-01-01 00:26:13.421984,200.0
1904-01-01 00:26:13.861984,136.36363636363637
1904-01-01 00:26:14.041984,200.0
1904-01-01 00:26:14.281984,200.0
1904-01-01 00:26:14.401984,200.0
1904-01-01 00:26:15.001984,100.0
1904-01-01 00:26:15.061984,200.0
1904-01-01 00:26:15.501984,136.36363636363637
1904-01-01 00:26:15.641984,200.0
1904-01-01 00:26:15.761984,200.0
1904-01-01 00:26:16.301984,111.11111111111111
1904-01-01 00:26:16.381984,200.0
1904-01-01 00:26:16.641984,200.0
1904-01-01 00:26:17.001984,166.66666666666666
1904-01-01 00:26:17.441984,200.0
1904-01-01 00:26:17.781984,200.0
1904-01-01 00:26:17.841984,200.0
1904-01-01 00:26:18.061984,200.0
1904-01-01 00:26:18.121984,200.0
1904-01-01 00:26:18.381984,200.0
1904-01-01 00:26:18.621984,200.0
1904-01-01 00:26:18.701984,200.0
1904-01-01 00:26:18.841984,200.0
1904-01-01 00:26:19.081984,200.0
1904-01-01 00:26:19.241984,200.0
1904-01-01 00:26:19.861984,96.7741935483871
1904-01-01 00:26:19.941984,200.0
1904-01-01 00:26:20.441984,120.0
1904-01-01 00:26:22.661984,200.0
1904-01-01 00:26:22.881984,200.0
1904-01-01 00:26:23.481984,100.0
1904-01-01 00:26:23.841984,166.66666666666666
1904-01-01 00:26:24.441984,125.0
1904-01-01 00:26:24.521984,200.0
1904-01-01 00:26:25.901984,103.44827586206897
1904-01-01 00:26:26.821984,200.0
1904-01-01 00:26:26.881984,200.0
1904-01-01 00:26:27.081984,200.0
1904-01-01 00:26:27.161984,200.0
1904-01-01 00:26:28.461984,200.0
1904-01-01 00:26:28.641984,200.0
1904-01-01 00:26:28.821984,200.0
1904-01-01 00:26:29.101984,200.0
1904-01-01 00:26:29.961984,103.44827586206897
1904-01-01 00:26:30.421984,130.43478260869566
1904-01-01 00:26:30.541984,200.0
1904-01-01 00:26:31.121984,103.44827586206897
1904-01-01 00:26:31.701984,103.44827586206897
1904-01-01 00:26:32.641984,166.66666666666666
1904-01-01 00:26:32.901984,200.0
1904-01-01 00:26:33.501984,100.0
1904-01-01 00:26:34.061984,107.14285714285714
1904-01-01 00:26:34.321984,200.0
1904-01-01 00:26:34.561984,200.0
1904-01-01 00:26:34.741984,200.0
1904-01-01 00:26:35.001984,200.0
1904-01-01 00:26:35.281984,200.0
1904-01-01 00:26:35.361984,200.0
1904-01-01 00:26:35.841984,125.0
1904-01-01 00:26:36.461984,200.0
1904-01-01 00:26:36.541984,200.0
1904-01-01 00:26:37.401984,200.0
1904-01-01 00:26:37.621984,200.0
1904-01-01 00:26:37.701984,200.0
1904-01-01 00:26:38.081984,157.89473684210526
1904-01-01 00:26:38.141984,200.0
1904-01-01 00:26:38.361984,200.0
1904-01-01 00:26:38.481984,200.0
1904-01-01 00:26:38.821984,200.0
1904-01-01 00:26:39.261984,200.0
1904-01-01 00:26:39.481984,200.0
1904-01-01 00:26:39.701984,200.0
1904-01-01 00:26:39.841984,200.0
1904-01-01 00:26:39.941984,200.0
1904-01-01 00:26:40.381984,136.36363636363637
1904-01-01 00:26:40.441984,200.0
1904-01-01 00:26:40.641984,200.0
1904-01-01 00:26:40.961984,187.5
1904-01-01 00:26:41.881984,150.0
1904-01-01 00:26:42.141984,200.0
1904-01-01 00:26:42.261984,200.0
1904-01-01 00:26:42.381984,200.0
1904-01-01 00:26:42.581984,200.0
1904-01-01 00:26:42.661984,200.0
1904-01-01 00:26:42.821984,200.0
1904-01-01 00:26:42.961984,200.0
1904-01-01 00:26:43.081984,200.0
1904-01-01 00:26:43.301984,200.0
1904-01-01 00:26:44.561984,176.47058823529412
1904-01-01 00:26:44.981984,200.0
1904-01-01 00:26:45.361984,157.89473684210526
1904-01-01 00:26:45.701984,176.47058823529412
1904-01-01 00:26:45.781984,200.0
1904-01-01 00:26:46.181984,150.0
1904-01-01 00:26:46.281984,200.0
1904-01-01 00:26:46.441984,200.0
1904-01-01 00:26:46.861984,142.85714285714286
1904-01-01 00:26:47.401984,150.0
1904-01-01 00:26:47.621984,200.0
1904-01-01 00:26:47.701984,200.0
1904-01-01 00:26:47.841984,200.0
1904-01-01 00:26:47.941984,200.0
1904-01-01 00:26:48.181984,200.0
1904-01-01 00:26:48.261984,200.0
1904-01-01 00:26:48.481984,200.0
1904-01-01 00:26:48.701984,200.0
1904-01-01 00:26:48.981984,200.0
1904-01-01 00:26:49.061984,200.0
1904-01-01 00:26:49.201984,200.0
1904-01-01 00:26:49.501984,200.0
1904-01-01 00:26:49.601984,200.0
1904-01-01 00:26:49.901984,200.0
1904-01-01 00:26:50.081984,200.0
1904-01-01 00:26:50.261984,200.0
1904-01-01 00:26:50.561984,200.0
1904-01-01 00:26:50.801984,200.0
1904-01-01 00:26:51.481984,200.0
1904-01-01 00:26:51.761984,200.0
1904-01-01 00:26:51.841984,200.0
1904-01-01 00:26:51.921984,200.0
1904-01-01 00:26:52.161984,200.0
1904-01-01 00:26:52.241984,200.0
1904-01-01 00:26:52.321984,200.0
1904-01-01 00:26:52.441984,200.0
1904-01-01 00:26:52.721984,200.0
1904-01-01 00:26:52.841984,200.0
1904-01-01 00:26:52.901984,200.0
1904-01-01 00:26:53.601984,136.36363636363637
1904-01-01 00:26:53.901984,200.0
1904-01-01 00:26:54.121984,200.0
1904-01-01 00:26:54.341984,200.0
1904-01-01 00:26:54.421984,200.0
1904-01-01 00:26:54.601984,200.0
1904-01-01 00:26:54.941984,176.47058823529412
1904-01-01 00:26:55.361984,142.85714285714286
1904-01-01 00:26:55.461984,200.0
1904-01-01 00:26:55.821984,166.66666666666666
1904-01-01 00:26:56.161984,200.0
1904-01-01 00:26:56.561984,150.0
1904-01-01 00:26:56.641984,200.0
1904-01-01 00:26:57.041984,150.0
1904-01-01 00:26:57.221984,200.0
1904-01-01 00:26:57.441984,200.0
1904-01-01 00:26:57.561984,200.0
1904-01-01 00:26:57.741984,200.0
1904-01-01 00:26:57.821984,200.0
1904-01-01 00:26:57.961984,200.0
1904-01-01 00:26:58.101984,200.0
1904-01-01 00:26:58.421984,187.5
1904-01-01 00:26:58.641984,200.0
1904-01-01 00:26:58.821984,200.0
1904-01-01 00:26:58.921984,200.0
1904-01-01 00:27:01.301984,103.44827586206897
1904-01-01 00:27:01.501984,200.0
1904-01-01 00:27:01.841984,176.47058823529412
1904-01-01 00:27:02.381984,111.11111111111111
1904-01-01 00:27:02.921984,111.11111111111111
1904-01-01 00:27:03.041984,200.0
1904-01-01 00:27:03.341984,200.0
1904-01-01 00:27:03.461984,200.0
1904-01-01 00:27:05.461984,200.0
1904-01-01 00:27:06.041984,103.44827586206897
1904-01-01 00:27:06.181984,200.0
1904-01-01 00:27:06.341984,200.0
1904-01-01 00:27:06.441984,200.0
1904-01-01 00:27:06.721984,200.0
1904-01-01 00:27:07.161984,136.36363636363637
1904-01-01 00:27:07.261984,200.0
1904-01-01 00:27:07.341984,200.0
1904-01-01 00:27:07.441984,200.0
1904-01-01 00:27:07.561984,200.0
1904-01-01 00:27:07.621984,200.0
1904-01-01 00:27:07.801984,200.0
1904-01-01 00:27:07.961984,200.0
1904-01-01 00:27:09.241984,200.0
1904-01-01 00:27:09.661984,142.85714285714286
1904-01-01 00:27:09.781984,200.0
1904-01-01 00:27:09.861984,200.0
1904-01-01 00:27:09.961984,200.0
1904-01-01 00:27:10.081984,200.0
1904-01-01 00:27:10.381984,200.0
1904-01-01 00:27:10.501984,200.0
1904-01-01 00:27:11.021984,115.38461538461539
1904-01-01 00:27:11.341984,200.0
1904-01-01 00:27:11.621984,200.0
1904-01-01 00:27:13.081984,200.0
1904-01-01 00:27:13.681984,100.0
1904-01-01 00:27:13.801984,200.0
1904-01-01 00:27:14.061984,200.0
1904-01-01 00:27:14.301984,200.0
1904-01-01 00:27:14.561984,200.0
1904-01-01 00:27:14.741984,200.0
1904-01-01 00:27:15.341984,100.0
1904-01-01 00:27:16.221984,200.0
1904-01-01 00:27:16.301984,200.0
1904-01-01 00:27:16.521984,200.0
1904-01-01 00:27:16.621984,200.0
1904-01-01 00:27:17.921984,200.0
1904-01-01 00:27:18.521984,100.0
1904-01-01 00:27:19.101984,200.0
1904-01-01 00:27:19.381984,200.0
1904-01-01 00:27:19.821984,136.36363636363637
1904-01-01 00:27:19.901984,200.0
1904-01-01 00:27:19.961984,200.0
1904-01-01 00:27:20.221984,200.0
1904-01-01 00:27:20.361984,200.0
1904-01-01 00:27:20.941984,103.44827586206897
1904-01-01 00:27:21.061984,200.0
1904-01-01 00:27:21.201984,200.0
1904-01-01 00:27:21.481984,200.0
1904-01-01 00:27:24.041984,130.43478260869566
1904-01-01 00:27:24.721984,111.11111111111111
1904-01-01 00:27:25.161984,136.36363636363637
1904-01-01 00:27:25.781984,96.7741935483871
1904-01-01 00:27:26.401984,96.7741935483871
1904-01-01 00:27:26.821984,142.85714285714286
1904-01-01 00:27:26.961984,200.0
1904-01-01 00:27:27.161984,200.0
1904-01-01 00:27:27.241984,200.0
1904-01-01 00:27:27.581984,176.47058823529412
1904-01-01 00:27:27.641984,200.0
1904-01-01 00:27:27.881984,200.0
1904-01-01 00:27:27.961984,200.0
1904-01-01 00:27:28.061984,200.0
1904-01-01 00:27:28.401984,176.47058823529412
1904-01-01 00:27:28.981984,200.0
1904-01-01 00:27:29.601984,200.0
1904-01-01 00:27:29.901984,200.0
1904-01-01 00:27:30.481984,200.0
1904-01-01 00:27:30.541984,200.0
1904-01-01 00:27:31.001984,130.43478260869566
1904-01-01 00:27:31.141984,200.0
1904-01-01 00:27:31.521984,157.89473684210526
1904-01-01 00:27:32.061984,111.11111111111111
1904-01-01 00:27:33.621984,115.38461538461539
1904-01-01 00:27:33.921984,200.0
1904-01-01 00:27:35.621984,200.0
1904-01-01 00:27:39.021984,200.0
1904-01-01 00:27:39.081984,200.0
1904-01-01 00:27:39.341984,200.0
1904-01-01 00:27:39.801984,200.0
1904-01-01 00:27:40.061984,200.0
1904-01-01 00:27:40.181984,200.0
1904-01-01 00:27:40.321984,200.0
1904-01-01 00:27:40.401984,200.0
1904-01-01 00:27:40.921984,115.38461538461539
1904-01-01 00:27:41.121984,200.0
1904-01-01 00:27:41.481984,166.66666666666666
1904-01-01 00:27:42.141984,200.0
1904-01-01 00:27:42.681984,111.11111111111111
1904-01-01 00:27:43.261984,103.44827586206897
1904-01-01 00:27:43.781984,115.38461538461539
1904-01-01 00:27:46.101984,111.11111111111111
1904-01-01 00:27:46.681984,103.44827586206897
1904-01-01 00:27:48.061984,200.0
1904-01-01 00:27:48.581984,115.38461538461539
1904-01-01 00:27:49.161984,200.0
1904-01-01 00:27:49.521984,166.66666666666666
1904-01-01 00:27:49.721984,200.0
1904-01-01 00:27:50.181984,130.43478260869566
1904-01-01 00:27:50.621984,136.36363636363637
1904-01-01 00:27:51.001984,157.89473684210526
1904-01-01 00:27:51.521984,115.38461538461539
1904-01-01 00:27:51.581984,200.0
1904-01-01 00:27:54.001984,200.0
1904-01-01 00:27:54.441984,136.36363636363637
1904-01-01 00:27:54.741984,200.0
1904-01-01 00:27:54.841984,200.0
1904-01-01 00:27:55.281984,136.36363636363637
1904-01-01 00:27:55.401984,200.0
1904-01-01 00:27:55.941984,111.11111111111111
1904-01-01 00:27:56.541984,100.0
1904-01-01 00:27:57.041984,120.0
1904-01-01 00:27:57.601984,107.14285714285714
1904-01-01 00:27:57.661984,200.0
1904-01-01 00:27:57.801984,200.0
1904-01-01 00:27:58.101984,200.0
1904-01-01 00:27:58.281984,200.0
1904-01-01 00:27:58.421984,200.0
1904-01-01 00:27:58.701984,200.0
1904-01-01 00:27:58.881984,200.0
1904-01-01 00:27:59.781984,111.11111111111111
1904-01-01 00:27:59.961984,200.0
1904-01-01 00:28:00.181984,200.0
1904-01-01 00:28:00.321984,200.0
1904-01-01 00:28:00.621984,200.0
1904-01-01 00:28:01.101984,125.0
1904-01-01 00:28:01.641984,200.0
1904-01-01 00:28:01.801984,200.0
1904-01-01 00:28:01.921984,200.0
1904-01-01 00:28:02.301984,157.89473684210526
1904-01-01 00:28:02.401984,200.0
1904-01-01 00:28:02.821984,142.85714285714286
1904-01-01 00:28:02.961984,200.0
1904-01-01 00:28:03.501984,111.11111111111111
1904-01-01 00:28:03.721984,200.0
1904-01-01 00:28:03.981984,200.0
1904-01-01 00:28:04.281984,200.0
1904-01-01 00:28:04.621984,176.47058823529412
1904-01-01 00:28:05.021984,200.0
1904-01-01 00:28:05.421984,150.0
1904-01-01 00:28:05.821984,150.0
1904-01-01 00:28:06.581984,93.75
1904-01-01 00:28:06.981984,150.0
1904-01-01 00:28:07.101984,200.0
1904-01-01 00:28:07.201984,200.0
1904-01-01 00:28:08.401984,200.0
1904-01-01 00:28:08.641984,200.0
1904-01-01 00:28:09.041984,150.0
1904-01-01 00:28:09.301984,200.0
1904-01-01 00:28:09.541984,200.0
1904-01-01 00:28:11.721984,200.0
1904-01-01 00:28:12.221984,120.0
1904-01-01 00:28:12.341984,200.0
1904-01-01 00:28:12.441984,200.0
1904-01-01 00:28:12.801984,166.66666666666666
1904-01-01 00:28:12.901984,200.0
1904-01-01 00:28:13.241984,176.47058823529412
1904-01-01 00:28:13.581984,176.47058823529412
1904-01-01 00:28:14.061984,125.0
1904-01-01 00:28:14.241984,200.0
1904-01-01 00:28:14.341984,200.0
1904-01-01 00:28:14.441984,200.0
1904-01-01 00:28:14.741984,200.0
1904-01-01 00:28:14.821984,200.0
1904-01-01 00:28:15.121984,200.0
1904-01-01 00:28:15.241984,200.0
1904-01-01 00:28:15.741984,120.0
1904-01-01 00:28:16.241984,120.0
1904-01-01 00:28:17.061984,200.0
1904-01-01 00:28:17.381984,187.5
1904-01-01 00:28:17.921984,200.0
1904-01-01 00:28:17.981984,200.0
1904-01-01 00:28:18.081984,200.0
1904-01-01 00:28:18.221984,200.0
1904-01-01 00:28:18.301984,200.0
1904-01-01 00:28:18.561984,200.0
1904-01-01 00:28:18.681984,200.0
1904-01-01 00:28:19.201984,115.38461538461539
1904-01-01 00:28:19.381984,200.0
1904-01-01 00:28:19.721984,176.47058823529412
1904-01-01 00:28:19.801984,200.0
1904-01-01 00:28:20.221984,142.85714285714286
1904-01-01 00:28:20.281984,200.0
1904-01-01 00:28:20.361984,200.0
1904-01-01 00:28:20.821984,130.43478260869566
1904-01-01 00:28:21.221984,200.0
1904-01-01 00:28:21.341984,200.0
1904-01-01 00:28:21.421984,200.0
1904-01-01 00:28:21.501984,200.0
1904-01-01 00:28:22.021984,115.38461538461539
1904-01-01 00:28:22.101984,200.0
1904-01-01 00:28:22.241984,200.0
1904-01-01 00:28:22.761984,115.38461538461539
1904-01-01 00:28:22.941984,200.0
1904-01-01 00:28:23.181984,200.0
1904-01-01 00:28:23.341984,200.0
1904-01-01 00:28:23.781984,136.36363636363637
1904-01-01 00:28:24.301984,115.38461538461539
1904-01-01 00:28:24.441984,200.0
1904-01-01 00:28:24.821984,157.89473684210526
1904-01-01 00:28:24.961984,200.0
1904-01-01 00:28:25.121984,200.0
1904-01-01 00:28:26.881984,115.38461538461539
1904-01-01 00:28:27.061984,200.0
1904-01-01 00:28:27.201984,200.0
1904-01-01 00:28:27.281984,200.0
1904-01-01 00:28:27.921984,93.75
1904-01-01 00:28:28.461984,111.11111111111111
1904-01-01 00:28:29.961984,142.85714285714286
1904-01-01 00:28:30.081984,200.0
1904-01-01 00:28:30.441984,166.66666666666666
1904-01-01 00:28:31.661984,150.0
1904-01-01 00:28:31.881984,200.0
1904-01-01 00:28:32.441984,107.14285714285714
1904-01-01 00:28:32.701984,200.0
1904-01-01 00:28:32.881984,200.0
1904-01-01 00:28:33.181984,200.0
1904-01-01 00:28:33.581984,150.0
1904-01-01 00:28:34.101984,150.0
1904-01-01 00:28:36.321984,200.0
1904-01-01 00:28:36.521984,200.0
1904-01-01 00:28:36.841984,187.5
1904-01-01 00:28:36.941984,200.0
1904-01-01 00:28:37.221984,200.0
1904-01-01 00:28:37.301984,200.0
1904-01-01 00:28:38.601984,200.0
1904-01-01 00:28:38.721984,200.0
1904-01-01 00:28:39.021984,200.0
1904-01-01 00:28:40.461984,120.0
1904-01-01 00:28:40.981984,115.38461538461539
1904-01-01 00:28:41.121984,200.0
1904-01-01 00:28:41.221984,200.0
1904-01-01 00:28:43.081984,200.0
1904-01-01 00:28:45.201984,200.0
1904-01-01 00:28:45.741984,111.11111111111111
1904-01-01 00:28:47.221984,200.0
1904-01-01 00:28:47.401984,200.0
1904-01-01 00:28:47.961984,107.14285714285714
1904-01-01 00:28:48.501984,111.11111111111111
1904-01-01 00:28:50.081984,136.36363636363637
1904-01-01 00:28:50.601984,115.38461538461539
1904-01-01 00:28:51.121984,115.38461538461539
1904-01-01 00:28:51.641984,115.38461538461539
1904-01-01 00:28:52.161984,115.38461538461539
1904-01-01 00:28:52.681984,115.38461538461539
1904-01-01 00:28:53.201984,115.38461538461539
1904-01-01 00:28:53.741984,111.11111111111111
1904-01-01 00:28:54.281984,111.11111111111111
1904-01-01 00:28:54.821984,111.11111111111111
1904-01-01 00:28:55.361984,111.11111111111111
1904-01-01 00:28:55.921984,107.14285714285714
1904-01-01 00:28:56.481984,107.14285714285714
1904-01-01 00:28:57.041984,107.14285714285714
1904-01-01 00:28:57.621984,103.44827586206897
1904-01-01 00:28:58.161984,111.11111111111111
1904-01-01 00:28:58.721984,107.14285714285714
1904-01-01 00:29:03.461984,115.38461538461539
1904-01-01 00:29:08.581984,120.0
1904-01-01 00:29:10.141984,111.11111111111111
1904-01-01 00:29:10.241984,200.0
1904-01-01 00:29:10.661984,142.85714285714286
1904-01-01 00:29:11.221984,107.14285714285714
1904-01-01 00:29:11.781984,107.14285714285714
1904-01-01 00:29:12.341984,107.14285714285714
1904-01-01 00:29:12.901984,107.14285714285714
1904-01-01 00:29:13.461984,107.14285714285714
1904-01-01 00:29:14.881984,200.0
1904-01-01 00:29:15.081984,200.0
1904-01-01 00:29:15.741984,200.0
1904-01-01 00:29:16.681984,125.0
1904-01-01 00:29:16.761984,200.0
1904-01-01 00:29:16.921984,200.0
1904-01-01 00:29:17.461984,200.0
1904-01-01 00:29:17.521984,200.0
1904-01-01 00:29:17.861984,176.47058823529412
1904-01-01 00:29:18.401984,111.11111111111111
1904-01-01 00:29:19.021984,96.7741935483871
1904-01-01 00:29:19.241984,200.0
1904-01-01 00:29:19.461984,200.0
1904-01-01 00:29:19.541984,200.0
1904-01-01 00:29:19.661984,200.0
1904-01-01 00:29:20.101984,187.5
1904-01-01 00:29:20.341984,200.0
1904-01-01 00:29:20.841984,120.0
1904-01-01 00:29:21.761984,111.11111111111111
1904-01-01 00:29:22.301984,111.11111111111111
1904-01-01 00:29:22.481984,200.0
1904-01-01 00:29:22.661984,200.0
1904-01-01 00:29:22.821984,200.0
1904-01-01 00:29:23.181984,166.66666666666666
1904-01-01 00:29:23.361984,200.0
1904-01-01 00:29:23.881984,115.38461538461539
1904-01-01 00:29:24.421984,111.11111111111111
1904-01-01 00:29:25.441984,200.0
1904-01-01 00:29:25.541984,200.0
1904-01-01 00:29:26.041984,120.0
1904-01-01 00:29:26.161984,200.0
1904-01-01 00:29:26.601984,136.36363636363637
1904-01-01 00:29:26.841984,200.0
1904-01-01 00:29:27.161984,187.5
1904-01-01 00:29:27.681984,115.38461538461539
1904-01-01 00:29:27.841984,200.0
1904-01-01 00:29:28.041984,200.0
1904-01-01 00:29:28.101984,200.0
1904-01-01 00:29:28.181984,200.0
1904-01-01 00:29:28.281984,200.0
1904-01-01 00:29:28.841984,107.14285714285714
1904-01-01 00:29:28.901984,200.0
1904-01-01 00:29:29.301984,150.0
1904-01-01 00:29:29.441984,200.0
1904-01-01 00:29:29.861984,142.85714285714286
1904-01-01 00:29:29.961984,200.0
1904-01-01 00:29:30.021984,200.0
1904-01-01 00:29:30.501984,125.0
1904-01-01 00:29:31.041984,157.89473684210526
1904-01-01 00:29:31.461984,187.5
1904-01-01 00:29:31.721984,200.0
1904-01-01 00:29:31.841984,200.0
1904-01-01 00:29:32.921984,200.0
1904-01-01 00:29:33.021984,200.0
1904-01-01 00:29:33.261984,200.0
1904-01-01 00:29:33.321984,200.0
1904-01-01 00:29:33.421984,200.0
1904-01-01 00:29:35.381984,150.0
1904-01-01 00:29:39.641984,115.38461538461539
1904-01-01 00:29:40.001984,166.66666666666666
1904-01-01 00:29:40.121984,200.0
1904-01-01 00:29:40.701984,200.0
1904-01-01 00:29:41.221984,115.38461538461539
1904-01-01 00:29:41.661984,136.36363636363637
1904-01-01 00:29:41.881984,200.0
1904-01-01 00:29:42.261984,157.89473684210526
1904-01-01 00:29:42.781984,115.38461538461539
1904-01-01 00:29:42.921984,200.0
1904-01-01 00:29:43.021984,200.0
1904-01-01 00:29:43.301984,200.0
1904-01-01 00:29:43.421984,200.0
1904-01-01 00:29:44.881984,115.38461538461539
1904-01-01 00:29:45.121984,200.0
1904-01-01 00:29:45.341984,200.0
1904-01-01 00:29:45.561984,200.0
1904-01-01 00:29:45.941984,157.89473684210526
1904-01-01 00:29:46.141984,200.0
1904-01-01 00:29:46.241984,200.0
1904-01-01 00:29:47.361984,200.0
1904-01-01 00:29:47.441984,200.0
1904-01-01 00:29:47.701984,200.0
1904-01-01 00:29:48.041984,176.47058823529412
1904-01-01 00:29:48.561984,115.38461538461539
1904-01-01 00:29:48.861984,200.0
1904-01-01 00:29:49.081984,200.0
1904-01-01 00:29:49.421984,176.47058823529412
1904-01-01 00:29:49.481984,200.0
1904-01-01 00:29:49.581984,200.0
1904-01-01 00:29:50.101984,115.38461538461539
1904-01-01 00:29:50.621984,115.38461538461539
1904-01-01 00:29:50.961984,176.47058823529412
1904-01-01 00:29:51.141984,200.0
1904-01-01 00:29:51.341984,200.0
1904-01-01 00:29:52.681984,166.66666666666666
1904-01-01 00:29:52.801984,200.0
1904-01-01 00:29:53.081984,200.0
1904-01-01 00:29:53.181984,200.0
1904-01-01 00:29:53.501984,187.5
1904-01-01 00:29:53.601984,200.0
1904-01-01 00:29:53.701984,200.0
1904-01-01 00:29:53.801984,200.0
1904-01-01 00:29:53.921984,200.0
1904-01-01 00:29:54.201984,200.0
1904-01-01 00:29:54.341984,200.0
1904-01-01 00:29:54.401984,200.0
1904-01-01 00:29:54.621984,200.0
1904-01-01 00:29:54.701984,200.0
1904-01-01 00:29:54.961984,200.0
1904-01-01 00:29:57.121984,166.66666666666666
1904-01-01 00:29:57.281984,200.0
1904-01-01 00:29:57.401984,200.0
1904-01-01 00:29:57.501984,200.0
1904-01-01 00:29:57.781984,200.0
1904-01-01 00:29:58.801984,200.0
1904-01-01 00:29:59.101984,200.0
1904-01-01 00:29:59.481984,157.89473684210526
1904-01-01 00:30:01.101984,200.0
1904-01-01 00:30:01.221984,200.0
1904-01-01 00:30:01.481984,200.0
1904-01-01 00:30:01.841984,166.66666666666666
1904-01-01 00:30:02.141984,200.0
1904-01-01 00:30:02.861984,120.0
1904-01-01 00:30:03.081984,200.0
1904-01-01 00:30:03.301984,200.0
1904-01-01 00:30:03.401984,200.0
1904-01-01 00:30:03.781984,157.89473684210526
1904-01-01 00:30:03.881984,200.0
1904-01-01 00:30:04.181984,200.0
1904-01-01 00:30:04.421984,200.0
1904-01-01 00:30:04.521984,200.0
1904-01-01 00:30:04.901984,157.89473684210526
1904-01-01 00:30:05.361984,130.43478260869566
1904-01-01 00:30:05.421984,200.0
1904-01-01 00:30:05.621984,200.0
1904-01-01 00:30:05.701984,200.0
1904-01-01 00:30:06.821984,200.0
1904-01-01 00:30:07.761984,200.0
1904-01-01 00:30:08.021984,200.0
1904-01-01 00:30:09.361984,200.0
1904-01-01 00:30:09.501984,200.0
1904-01-01 00:30:11.001984,166.66666666666666
1904-01-01 00:30:12.501984,120.0
1904-01-01 00:30:13.021984,115.38461538461539
1904-01-01 00:30:14.521984,200.0
1904-01-01 00:30:14.961984,136.36363636363637
1904-01-01 00:30:15.461984,120.0
1904-01-01 00:30:18.461984,120.0
1904-01-01 00:30:18.561984,200.0
1904-01-01 00:30:19.041984,125.0
1904-01-01 00:30:19.881984,142.85714285714286
1904-01-01 00:30:19.961984,200.0
1904-01-01 00:30:20.441984,125.0
1904-01-01 00:30:20.941984,120.0
1904-01-01 00:30:21.421984,125.0
1904-01-01 00:30:21.921984,157.89473684210526
1904-01-01 00:30:22.261984,176.47058823529412
1904-01-01 00:30:22.601984,176.47058823529412
1904-01-01 00:30:22.881984,200.0
1904-01-01 00:30:23.381984,120.0
1904-01-01 00:30:23.521984,200.0
1904-01-01 00:30:23.861984,176.47058823529412
1904-01-01 00:30:24.041984,200.0
1904-01-01 00:30:24.341984,200.0
1904-01-01 00:30:24.681984,176.47058823529412
1904-01-01 00:30:24.841984,200.0
1904-01-01 00:30:26.221984,200.0
1904-01-01 00:30:26.321984,200.0
1904-01-01 00:30:26.641984,187.5
1904-01-01 00:30:26.801984,200.0
1904-01-01 00:30:27.161984,166.66666666666666
1904-01-01 00:30:27.301984,200.0
1904-01-01 00:30:27.781984,125.0
1904-01-01 00:30:28.261984,125.0
1904-01-01 00:30:28.341984,200.0
1904-01-01 00:30:28.621984,200.0
1904-01-01 00:30:28.741984,200.0
1904-01-01 00:30:29.221984,125.0
1904-01-01 00:30:29.561984,176.47058823529412
1904-01-01 00:30:29.701984,200.0
1904-01-01 00:30:30.161984,130.43478260869566
1904-01-01 00:30:30.321984,200.0
1904-01-01 00:30:30.501984,200.0
1904-01-01 00:30:30.641984,200.0
1904-01-01 00:30:30.961984,187.5
1904-01-01 00:30:31.101984,200.0
1904-01-01 00:30:31.221984,200.0
1904-01-01 00:30:31.421984,200.0
1904-01-01 00:30:31.521984,200.0
1904-01-01 00:30:32.161984,93.75
1904-01-01 00:30:32.361984,200.0
1904-01-01 00:30:32.501984,200.0
1904-01-01 00:30:32.581984,200.0
1904-01-01 00:30:32.961984,157.89473684210526
1904-01-01 00:30:33.081984,200.0
1904-01-01 00:30:33.341984,200.0
1904-01-01 00:30:33.421984,200.0
1904-01-01 00:30:33.881984,130.43478260869566
1904-01-01 00:30:34.281984,150.0
1904-01-01 00:30:34.501984,200.0
1904-01-01 00:30:34.661984,200.0
1904-01-01 00:30:35.021984,166.66666666666666
1904-01-01 00:30:35.261984,200.0
1904-01-01 00:30:35.321984,200.0
1904-01-01 00:30:35.421984,200.0
1904-01-01 00:30:35.801984,157.89473684210526
1904-01-01 00:30:36.201984,150.0
1904-01-01 00:30:36.841984,93.75
1904-01-01 00:30:37.141984,200.0
1904-01-01 00:30:37.381984,200.0
1904-01-01 00:30:37.541984,200.0
1904-01-01 00:30:38.001984,130.43478260869566
1904-01-01 00:30:38.701984,96.7741935483871
1904-01-01 00:30:38.921984,200.0
1904-01-01 00:30:39.161984,200.0
1904-01-01 00:30:39.261984,200.0
1904-01-01 00:30:39.401984,200.0
1904-01-01 00:30:40.981984,125.0
1904-01-01 00:30:41.221984,200.0
1904-01-01 00:30:41.461984,200.0
1904-01-01 00:30:41.941984,157.89473684210526
1904-01-01 00:30:42.261984,187.5
1904-01-01 00:30:42.361984,200.0
1904-01-01 00:30:42.421984,200.0
1904-01-01 00:30:42.841984,142.85714285714286
1904-01-01 00:30:42.901984,200.0
1904-01-01 00:30:43.381984,125.0
1904-01-01 00:30:43.481984,200.0
1904-01-01 00:30:43.841984,166.66666666666666
1904-01-01 00:30:44.341984,157.89473684210526
1904-01-01 00:30:44.601984,200.0
1904-01-01 00:30:44.961984,166.66666666666666
1904-01-01 00:30:45.621984,200.0
1904-01-01 00:30:45.741984,200.0
1904-01-01 00:30:46.241984,157.89473684210526
1904-01-01 00:30:46.581984,176.47058823529412
1904-01-01 00:30:46.681984,200.0
1904-01-01 00:30:46.901984,200.0
1904-01-01 00:30:47.281984,200.0
1904-01-01 00:30:47.761984,125.0
1904-01-01 00:30:48.081984,187.5
1904-01-01 00:30:48.321984,200.0
1904-01-01 00:30:48.381984,200.0
1904-01-01 00:30:49.521984,200.0
1904-01-01 00:30:49.741984,200.0
1904-01-01 00:30:50.301984,107.14285714285714
1904-01-01 00:30:50.641984,176.47058823529412
1904-01-01 00:30:52.361984,200.0
1904-01-01 00:30:53.041984,176.47058823529412
1904-01-01 00:30:53.201984,200.0
1904-01-01 00:30:57.081984,200.0
1904-01-01 00:30:57.321984,200.0
1904-01-01 00:30:57.841984,115.38461538461539
1904-01-01 00:30:58.181984,176.47058823529412
1904-01-01 00:30:59.781984,142.85714285714286
1904-01-01 00:30:59.881984,200.0
1904-01-01 00:31:00.481984,100.0
1904-01-01 00:31:01.001984,115.38461538461539
1904-01-01 00:31:01.421984,142.85714285714286
1904-01-01 00:31:01.701984,200.0
1904-01-01 00:31:01.941984,200.0
1904-01-01 00:31:02.441984,120.0
1904-01-01 00:31:04.121984,200.0
1904-01-01 00:31:04.561984,136.36363636363637
1904-01-01 00:31:06.021984,200.0
1904-01-01 00:31:06.421984,150.0
1904-01-01 00:31:06.881984,130.43478260869566
1904-01-01 00:31:07.601984,111.11111111111111
1904-01-01 00:31:07.841984,200.0
1904-01-01 00:31:08.101984,200.0
1904-01-01 00:31:08.661984,107.14285714285714
1904-01-01 00:31:09.141984,125.0
1904-01-01 00:31:09.661984,115.38461538461539
1904-01-01 00:31:10.041984,157.89473684210526
1904-01-01 00:31:10.181984,200.0
1904-01-01 00:31:10.701984,115.38461538461539
1904-01-01 00:31:11.141984,136.36363636363637
1904-01-01 00:31:12.381984,200.0
1904-01-01 00:31:12.741984,166.66666666666666
1904-01-01 00:31:13.261984,115.38461538461539
1904-01-01 00:31:13.541984,200.0
1904-01-01 00:31:13.761984,200.0
1904-01-01 00:31:14.281984,115.38461538461539
1904-01-01 00:31:14.801984,115.38461538461539
1904-01-01 00:31:16.401984,200.0
1904-01-01 00:31:16.781984,157.89473684210526
1904-01-01 00:31:16.941984,200.0
1904-01-01 00:31:17.481984,111.11111111111111
1904-01-01 00:31:18.021984,111.11111111111111
1904-01-01 00:31:18.101984,200.0
1904-01-01 00:31:18.561984,130.43478260869566
1904-01-01 00:31:19.101984,111.11111111111111
1904-01-01 00:31:21.181984,200.0
1904-01-01 00:31:21.341984,200.0
1904-01-01 00:31:21.581984,200.0
1904-01-01 00:31:21.701984,200.0
1904-01-01 00:31:21.841984,200.0
1904-01-01 00:31:21.901984,200.0
1904-01-01 00:31:22.221984,187.5
1904-01-01 00:31:22.341984,200.0
1904-01-01 00:31:22.701984,166.66666666666666
1904-01-01 00:31:22.801984,200.0
1904-01-01 00:31:23.041984,200.0
1904-01-01 00:31:23.861984,96.7741935483871
1904-01-01 00:31:25.141984,166.66666666666666
1904-01-01 00:31:25.241984,200.0
1904-01-01 00:31:25.441984,200.0
1904-01-01 00:31:25.801984,200.0
1904-01-01 00:31:25.961984,200.0
1904-01-01 00:31:26.121984,200.0
1904-01-01 00:31:26.321984,200.0
1904-01-01 00:31:26.381984,200.0
1904-01-01 00:31:26.601984,200.0
1904-01-01 00:31:28.341984,125.0
1904-01-01 00:31:28.701984,166.66666666666666
1904-01-01 00:31:28.841984,200.0
1904-01-01 00:31:28.941984,200.0
1904-01-01 00:31:29.341984,150.0
1904-01-01 00:31:29.421984,200.0
1904-01-01 00:31:29.801984,157.89473684210526
1904-01-01 00:31:29.861984,200.0
1904-01-01 00:31:29.941984,200.0
1904-01-01 00:31:30.061984,200.0
1904-01-01 00:31:30.361984,200.0
1904-01-01 00:31:30.561984,200.0
1904-01-01 00:31:30.741984,200.0
1904-01-01 00:31:30.861984,200.0
1904-01-01 00:31:31.001984,200.0
1904-01-01 00:31:31.221984,200.0
1904-01-01 00:31:31.301984,200.0
1904-01-01 00:31:31.761984,130.43478260869566
1904-01-01 00:31:31.901984,200.0
1904-01-01 00:31:32.461984,107.14285714285714
1904-01-01 00:31:32.901984,136.36363636363637
1904-01-01 00:31:32.981984,200.0
1904-01-01 00:31:33.421984,136.36363636363637
1904-01-01 00:31:33.801984,157.89473684210526
1904-01-01 00:31:33.941984,200.0
1904-01-01 00:31:34.461984,115.38461538461539
1904-01-01 00:31:35.001984,111.11111111111111
1904-01-01 00:31:38.681984,200.0
1904-01-01 00:31:39.201984,115.38461538461539
1904-01-01 00:31:39.401984,200.0
1904-01-01 00:31:39.721984,187.5
1904-01-01 00:31:40.161984,136.36363636363637
1904-01-01 00:31:40.241984,200.0
1904-01-01 00:31:40.501984,200.0
1904-01-01 00:31:40.581984,200.0
1904-01-01 00:31:40.661984,200.0
1904-01-01 00:31:40.741984,200.0
1904-01-01 00:31:40.941984,200.0
1904-01-01 00:31:41.261984,187.5
1904-01-01 00:31:41.481984,200.0
1904-01-01 00:31:41.741984,200.0
1904-01-01 00:31:41.981984,200.0
1904-01-01 00:31:43.781984,200.0
1904-01-01 00:31:43.881984,200.0
1904-01-01 00:31:44.121984,200.0
1904-01-01 00:31:44.441984,187.5
1904-01-01 00:31:45.521984,111.11111111111111
1904-01-01 00:31:45.761984,200.0
1904-01-01 00:31:45.841984,200.0
1904-01-01 00:31:46.081984,200.0
1904-01-01 00:31:46.601984,115.38461538461539
1904-01-01 00:31:47.401984,200.0
1904-01-01 00:31:47.721984,187.5
1904-01-01 00:31:48.241984,115.38461538461539
1904-01-01 00:31:48.781984,111.11111111111111
1904-01-01 00:31:48.901984,200.0
1904-01-01 00:31:49.061984,200.0
1904-01-01 00:31:49.141984,200.0
1904-01-01 00:31:49.401984,200.0
1904-01-01 00:31:49.821984,142.85714285714286
1904-01-01 00:31:50.061984,200.0
1904-01-01 00:31:50.261984,200.0
1904-01-01 00:31:50.341984,200.0
1904-01-01 00:31:50.421984,200.0
1904-01-01 00:31:50.841984,142.85714285714286
1904-01-01 00:31:51.061984,200.0
1904-01-01 00:31:52.201984,150.0
1904-01-01 00:31:52.621984,142.85714285714286
1904-01-01 00:31:52.901984,200.0
1904-01-01 00:31:53.021984,200.0
1904-01-01 00:31:53.401984,157.89473684210526
1904-01-01 00:31:53.701984,200.0
1904-01-01 00:31:53.841984,200.0
1904-01-01 00:31:53.921984,200.0
1904-01-01 00:31:54.121984,200.0
1904-01-01 00:31:54.581984,130.43478260869566
1904-01-01 00:31:54.941984,166.66666666666666
1904-01-01 00:31:55.221984,200.0
1904-01-01 00:31:55.441984,200.0
1904-01-01 00:31:56.421984,200.0
1904-01-01 00:31:56.481984,200.0
1904-01-01 00:31:56.561984,200.0
1904-01-01 00:31:57.661984,200.0
1904-01-01 00:31:57.761984,200.0
1904-01-01 00:31:59.381984,200.0
1904-01-01 00:31:59.541984,200.0
1904-01-01 00:32:00.041984,120.0
1904-01-01 00:32:00.281984,200.0
1904-01-01 00:32:00.561984,200.0
1904-01-01 00:32:00.641984,200.0
1904-01-01 00:32:00.941984,200.0
1904-01-01 00:32:01.221984,200.0
1904-01-01 00:32:02.421984,200.0
1904-01-01 00:32:02.521984,200.0
1904-01-01 00:32:02.581984,200.0
1904-01-01 00:32:03.701984,200.0
1904-01-01 00:32:03.781984,200.0
1904-01-01 00:32:04.061984,200.0
1904-01-01 00:32:04.201984,200.0
1904-01-01 00:32:04.641984,136.36363636363637
1904-01-01 00:32:04.761984,200.0
1904-01-01 00:32:04.861984,200.0
1904-01-01 00:32:05.041984,200.0
1904-01-01 00:32:05.401984,166.66666666666666
1904-01-01 00:32:05.541984,200.0
1904-01-01 00:32:05.601984,200.0
1904-01-01 00:32:05.761984,200.0
1904-01-01 00:32:06.101984,200.0
1904-01-01 00:32:07.421984,200.0
1904-01-01 00:32:08.461984,200.0
1904-01-01 00:32:08.561984,200.0
1904-01-01 00:32:08.701984,200.0
1904-01-01 00:32:09.141984,136.36363636363637
1904-01-01 00:32:09.541984,150.0
1904-01-01 00:32:09.941984,150.0
1904-01-01 00:32:11.241984,200.0
1904-01-01 00:32:11.741984,120.0
1904-01-01 00:32:12.261984,115.38461538461539
1904-01-01 00:32:12.341984,200.0
1904-01-01 00:32:12.441984,200.0
1904-01-01 00:32:12.761984,187.5
1904-01-01 00:32:13.281984,115.38461538461539
1904-01-01 00:32:13.341984,200.0
1904-01-01 00:32:13.441984,200.0
1904-01-01 00:32:13.541984,200.0
1904-01-01 00:32:13.621984,200.0
1904-01-01 00:32:14.281984,115.38461538461539
1904-01-01 00:32:14.501984,200.0
1904-01-01 00:32:14.761984,200.0
1904-01-01 00:32:14.841984,200.0
1904-01-01 00:32:15.281984,136.36363636363637
1904-01-01 00:32:15.701984,142.85714285714286
1904-01-01 00:32:15.801984,200.0
1904-01-01 00:32:16.221984,142.85714285714286
1904-01-01 00:32:16.321984,200.0
1904-01-01 00:32:18.141984,142.85714285714286
1904-01-01 00:32:18.401984,200.0
1904-01-01 00:32:18.621984,200.0
1904-01-01 00:32:18.921984,200.0
1904-01-01 00:32:19.361984,136.36363636363637
1904-01-01 00:32:19.441984,200.0
1904-01-01 00:32:19.641984,200.0
1904-01-01 00:32:19.701984,200.0
1904-01-01 00:32:19.821984,200.0
1904-01-01 00:32:19.921984,200.0
1904-01-01 00:32:20.101984,200.0
1904-01-01 00:32:20.481984,157.89473684210526
1904-01-01 00:32:20.621984,200.0
1904-01-01 00:32:20.881984,200.0
1904-01-01 00:32:21.281984,150.0
1904-01-01 00:32:21.441984,200.0
1904-01-01 00:32:21.921984,125.0
1904-01-01 00:32:22.421984,157.89473684210526
1904-01-01 00:32:22.821984,150.0
1904-01-01 00:32:23.141984,187.5
1904-01-01 00:32:23.421984,200.0
1904-01-01 00:32:23.621984,200.0
1904-01-01 00:32:23.801984,200.0
1904-01-01 00:32:23.921984,200.0
1904-01-01 00:32:24.041984,200.0
1904-01-01 00:32:24.161984,200.0
1904-01-01 00:32:24.421984,200.0
1904-01-01 00:32:24.921984,120.0
1904-01-01 00:32:25.261984,176.47058823529412
1904-01-01 00:32:25.341984,200.0
1904-01-01 00:32:25.421984,200.0
1904-01-01 00:32:25.541984,200.0
1904-01-01 00:32:25.901984,200.0
1904-01-01 00:32:26.461984,107.14285714285714
1904-01-01 00:32:26.901984,200.0
1904-01-01 00:32:27.401984,120.0
1904-01-01 00:32:27.741984,176.47058823529412
1904-01-01 00:32:27.841984,200.0
1904-01-01 00:32:27.961984,200.0
1904-01-01 00:32:28.061984,200.0
1904-01-01 00:32:28.381984,187.5
1904-01-01 00:32:28.781984,150.0
1904-01-01 00:32:29.361984,103.44827586206897
1904-01-01 00:32:29.541984,200.0
1904-01-01 00:32:29.841984,200.0
1904-01-01 00:32:29.961984,200.0
1904-01-01 00:32:30.221984,200.0
1904-01-01 00:32:32.541984,200.0
1904-01-01 00:32:32.801984,200.0
1904-01-01 00:32:33.441984,93.75
1904-01-01 00:32:33.701984,200.0
1904-01-01 00:32:34.641984,136.36363636363637
1904-01-01 00:32:34.861984,200.0
1904-01-01 00:32:35.221984,200.0
1904-01-01 00:32:35.701984,125.0
1904-01-01 00:32:35.801984,200.0
1904-01-01 00:32:36.081984,200.0
1904-01-01 00:32:36.181984,200.0
1904-01-01 00:32:36.661984,125.0
1904-01-01 00:32:36.841984,200.0
1904-01-01 00:32:36.921984,200.0
1904-01-01 00:32:37.081984,200.0
1904-01-01 00:32:37.141984,200.0
1904-01-01 00:32:37.241984,200.0
1904-01-01 00:32:37.461984,200.0
1904-01-01 00:32:37.721984,200.0
1904-01-01 00:32:37.821984,200.0
1904-01-01 00:32:38.101984,200.0
1904-01-01 00:32:38.321984,200.0
1904-01-01 00:32:38.381984,200.0
1904-01-01 00:32:38.441984,200.0
1904-01-01 00:32:38.541984,200.0
1904-01-01 00:32:38.901984,166.66666666666666
1904-01-01 00:32:39.161984,200.0
1904-01-01 00:32:39.301984,200.0
1904-01-01 00:32:39.481984,200.0
1904-01-01 00:32:39.561984,200.0
1904-01-01 00:32:40.041984,176.47058823529412
1904-01-01 00:32:40.341984,200.0
1904-01-01 00:32:40.481984,200.0
1904-01-01 00:32:40.621984,200.0
1904-01-01 00:32:40.761984,200.0
1904-01-01 00:32:40.861984,200.0
1904-01-01 00:32:41.001984,200.0
1904-01-01 00:32:41.241984,200.0
1904-01-01 00:32:42.761984,176.47058823529412
1904-01-01 00:32:42.821984,200.0
1904-01-01 00:32:43.201984,157.89473684210526
1904-01-01 00:32:43.381984,200.0
1904-01-01 00:32:43.601984,200.0
1904-01-01 00:32:44.001984,150.0
1904-01-01 00:32:44.321984,200.0
1904-01-01 00:32:44.401984,200.0
1904-01-01 00:32:44.801984,150.0
1904-01-01 00:32:44.961984,200.0
1904-01-01 00:32:45.101984,200.0
1904-01-01 00:32:45.261984,200.0
1904-01-01 00:32:45.321984,200.0
1904-01-01 00:32:45.681984,166.66666666666666
1904-01-01 00:32:45.781984,200.0
1904-01-01 00:32:46.141984,166.66666666666666
1904-01-01 00:32:46.281984,200.0
1904-01-01 00:32:46.441984,200.0
1904-01-01 00:32:46.661984,200.0
1904-01-01 00:32:46.761984,200.0
1904-01-01 00:32:47.241984,125.0
1904-01-01 00:32:47.441984,200.0
1904-01-01 00:32:47.541984,200.0
1904-01-01 00:32:47.721984,200.0
1904-01-01 00:32:48.041984,187.5
1904-01-01 00:32:48.201984,200.0
1904-01-01 00:32:48.721984,115.38461538461539
1904-01-01 00:32:48.901984,200.0
1904-01-01 00:32:49.161984,200.0
1904-01-01 00:32:49.501984,176.47058823529412
1904-01-01 00:32:49.641984,200.0
1904-01-01 00:32:50.061984,142.85714285714286
1904-01-01 00:32:50.521984,176.47058823529412
1904-01-01 00:32:50.581984,200.0
1904-01-01 00:32:50.641984,200.0
1904-01-01 00:32:50.981984,176.47058823529412
1904-01-01 00:32:51.061984,200.0
1904-01-01 00:32:51.341984,200.0
1904-01-01 00:32:51.541984,200.0
1904-01-01 00:32:51.721984,200.0
1904-01-01 00:32:52.021984,200.0
1904-01-01 00:32:52.401984,157.89473684210526
1904-01-01 00:32:52.881984,157.89473684210526
1904-01-01 00:32:52.981984,200.0
1904-01-01 00:32:53.201984,200.0
1904-01-01 00:32:53.461984,200.0
1904-01-01 00:32:53.581984,200.0
1904-01-01 00:32:53.681984,200.0
1904-01-01 00:32:53.941984,200.0
1904-01-01 00:32:54.361984,142.85714285714286
1904-01-01 00:32:54.441984,200.0
1904-01-01 00:32:54.521984,200.0
1904-01-01 00:32:54.741984,200.0
1904-01-01 00:32:54.841984,200.0
1904-01-01 00:32:54.921984,200.0
1904-01-01 00:32:55.521984,100.0
1904-01-01 00:32:55.881984,200.0
1904-01-01 00:32:56.381984,157.89473684210526
1904-01-01 00:32:56.781984,150.0
1904-01-01 00:32:56.921984,200.0
1904-01-01 00:32:57.901984,200.0
1904-01-01 00:32:57.981984,200.0
1904-01-01 00:32:58.201984,200.0
1904-01-01 00:32:58.301984,200.0
1904-01-01 00:32:59.021984,200.0
1904-01-01 00:32:59.341984,200.0
1904-01-01 00:32:59.421984,200.0
1904-01-01 00:32:59.501984,200.0
1904-01-01 00:32:59.821984,187.5
1904-01-01 00:32:59.901984,200.0
1904-01-01 00:33:00.001984,200.0
1904-01-01 00:33:00.501984,120.0
1904-01-01 00:33:00.561984,200.0
1904-01-01 00:33:00.621984,200.0
1904-01-01 00:33:00.801984,200.0
1904-01-01 00:33:01.041984,200.0
1904-01-01 00:33:01.141984,200.0
1904-01-01 00:33:01.301984,200.0
1904-01-01 00:33:01.641984,176.47058823529412
1904-01-01 00:33:01.741984,200.0
1904-01-01 00:33:02.061984,187.5
1904-01-01 00:33:02.141984,200.0
1904-01-01 00:33:02.201984,200.0
1904-01-01 00:33:02.261984,200.0
1904-01-01 00:33:02.741984,125.0
1904-01-01 00:33:03.241984,120.0
1904-01-01 00:33:03.301984,200.0
1904-01-01 00:33:03.741984,136.36363636363637
1904-01-01 00:33:04.241984,120.0
1904-01-01 00:33:04.721984,125.0
1904-01-01 00:33:06.221984,120.0
1904-01-01 00:33:08.201984,200.0
1904-01-01 00:33:08.701984,120.0
1904-01-01 00:33:09.201984,120.0
1904-01-01 00:33:09.721984,115.38461538461539
1904-01-01 00:33:10.181984,130.43478260869566
1904-01-01 00:33:10.681984,120.0
1904-01-01 00:33:11.001984,187.5
1904-01-01 00:33:11.181984,200.0
1904-01-01 00:33:11.541984,166.66666666666666
1904-01-01 00:33:11.681984,200.0
1904-01-01 00:33:12.201984,115.38461538461539
1904-01-01 00:33:13.481984,200.0
1904-01-01 00:33:13.641984,200.0
1904-01-01 00:33:13.781984,200.0
1904-01-01 00:33:13.981984,200.0
1904-01-01 00:33:14.141984,200.0
1904-01-01 00:33:14.401984,200.0
1904-01-01 00:33:14.641984,200.0
1904-01-01 00:33:15.001984,166.66666666666666
1904-01-01 00:33:15.301984,200.0
1904-01-01 00:33:15.641984,200.0
1904-01-01 00:33:16.081984,136.36363636363637
1904-01-01 00:33:17.021984,200.0
1904-01-01 00:33:17.941984,200.0
1904-01-01 00:33:18.061984,200.0
1904-01-01 00:33:18.181984,200.0
1904-01-01 00:33:19.121984,200.0
1904-01-01 00:33:19.261984,200.0
1904-01-01 00:33:19.641984,157.89473684210526
1904-01-01 00:33:20.061984,142.85714285714286
1904-01-01 00:33:20.361984,200.0
1904-01-01 00:33:20.481984,200.0
1904-01-01 00:33:20.881984,150.0
1904-01-01 00:33:22.341984,200.0
1904-01-01 00:33:22.621984,200.0
1904-01-01 00:33:23.341984,100.0
1904-01-01 00:33:23.481984,200.0
1904-01-01 00:33:23.901984,200.0
1904-01-01 00:33:24.341984,200.0
1904-01-01 00:33:24.481984,200.0
1904-01-01 00:33:24.621984,200.0
1904-01-01 00:33:24.761984,200.0
1904-01-01 00:33:24.841984,200.0
1904-01-01 00:33:25.021984,200.0
1904-01-01 00:33:25.181984,200.0
1904-01-01 00:33:25.261984,200.0
1904-01-01 00:33:25.341984,200.0
1904-01-01 00:33:25.821984,125.0
1904-01-01 00:33:26.041984,200.0
1904-01-01 00:33:26.821984,120.0
1904-01-01 00:33:27.281984,130.43478260869566
1904-01-01 00:33:27.541984,200.0
1904-01-01 00:33:27.841984,200.0
1904-01-01 00:33:28.181984,176.47058823529412
1904-01-01 00:33:28.341984,200.0
1904-01-01 00:33:28.461984,200.0
1904-01-01 00:33:28.581984,200.0
1904-01-01 00:33:28.741984,200.0
1904-01-01 00:33:28.841984,200.0
1904-01-01 00:33:28.921984,200.0
1904-01-01 00:33:29.341984,142.85714285714286
1904-01-01 00:33:29.721984,157.89473684210526
1904-01-01 00:33:30.101984,157.89473684210526
1904-01-01 00:33:30.201984,200.0
1904-01-01 00:33:30.341984,200.0
1904-01-01 00:33:30.601984,200.0
1904-01-01 00:33:30.661984,200.0
1904-01-01 00:33:31.021984,166.66666666666666
1904-01-01 00:33:32.241984,200.0
1904-01-01 00:33:32.301984,200.0
1904-01-01 00:33:32.641984,176.47058823529412
1904-01-01 00:33:32.741984,200.0
1904-01-01 00:33:32.961984,200.0
1904-01-01 00:33:33.081984,200.0
1904-01-01 00:33:33.301984,200.0
1904-01-01 00:33:33.381984,200.0
1904-01-01 00:33:33.701984,187.5
1904-01-01 00:33:33.781984,200.0
1904-01-01 00:33:33.881984,200.0
1904-01-01 00:33:34.441984,107.14285714285714
1904-01-01 00:33:34.941984,120.0
1904-01-01 00:33:35.381984,136.36363636363637
1904-01-01 00:33:35.921984,200.0
1904-01-01 00:33:36.061984,200.0
1904-01-01 00:33:36.181984,200.0
1904-01-01 00:33:36.581984,150.0
1904-01-01 00:33:36.741984,200.0
1904-01-01 00:33:36.901984,200.0
1904-01-01 00:33:37.101984,200.0
1904-01-01 00:33:37.281984,200.0
1904-01-01 00:33:37.361984,200.0
1904-01-01 00:33:37.761984,150.0
1904-01-01 00:33:38.161984,150.0
1904-01-01 00:33:38.541984,200.0
1904-01-01 00:33:38.681984,200.0
1904-01-01 00:33:40.321984,200.0
1904-01-01 00:33:40.601984,200.0
1904-01-01 00:33:40.701984,200.0
1904-01-01 00:33:40.841984,200.0
1904-01-01 00:33:40.941984,200.0
1904-01-01 00:33:41.081984,200.0
1904-01-01 00:33:41.501984,142.85714285714286
1904-01-01 00:33:41.781984,200.0
1904-01-01 00:33:42.021984,200.0
1904-01-01 00:33:42.701984,200.0
1904-01-01 00:33:42.921984,200.0
1904-01-01 00:33:43.241984,187.5
1904-01-01 00:33:43.481984,200.0
1904-01-01 00:33:44.121984,93.75
1904-01-01 00:33:44.441984,187.5
1904-01-01 00:33:44.501984,200.0
1904-01-01 00:33:44.921984,142.85714285714286
1904-01-01 00:33:45.101984,200.0
1904-01-01 00:33:45.321984,200.0
1904-01-01 00:33:45.581984,200.0
1904-01-01 00:33:45.861984,200.0
1904-01-01 00:33:46.181984,187.5
1904-01-01 00:33:46.341984,200.0
1904-01-01 00:33:46.781984,136.36363636363637
1904-01-01 00:33:47.281984,150.0
1904-01-01 00:33:47.361984,200.0
1904-01-01 00:33:47.461984,200.0
1904-01-01 00:33:47.681984,200.0
1904-01-01 00:33:47.741984,200.0
1904-01-01 00:33:47.841984,200.0
1904-01-01 00:33:48.021984,200.0
1904-01-01 00:33:48.421984,200.0
1904-01-01 00:33:49.781984,200.0
1904-01-01 00:33:50.061984,200.0
1904-01-01 00:33:50.141984,200.0
1904-01-01 00:33:50.261984,200.0
1904-01-01 00:33:50.581984,200.0
1904-01-01 00:33:50.801984,200.0
1904-01-01 00:33:51.061984,200.0
1904-01-01 00:33:51.441984,157.89473684210526
1904-01-01 00:33:51.641984,200.0
1904-01-01 00:33:51.961984,187.5
1904-01-01 00:33:52.021984,200.0
1904-01-01 00:33:52.481984,130.43478260869566
1904-01-01 00:33:52.601984,200.0
1904-01-01 00:33:52.741984,200.0
1904-01-01 00:33:52.961984,200.0
1904-01-01 00:33:53.121984,200.0
1904-01-01 00:33:53.441984,187.5
1904-01-01 00:33:53.781984,176.47058823529412
1904-01-01 00:33:53.901984,200.0
1904-01-01 00:33:54.001984,200.0
1904-01-01 00:33:54.381984,157.89473684210526
1904-01-01 00:33:54.761984,157.89473684210526
1904-01-01 00:33:54.961984,200.0
1904-01-01 00:33:55.801984,125.0
1904-01-01 00:33:56.021984,200.0
1904-01-01 00:33:56.161984,200.0
1904-01-01 00:33:56.261984,200.0
1904-01-01 00:33:56.721984,130.43478260869566
1904-01-01 00:33:56.821984,200.0
1904-01-01 00:33:56.961984,200.0
1904-01-01 00:33:57.301984,176.47058823529412
1904-01-01 00:33:57.441984,200.0
1904-01-01 00:33:57.661984,200.0
1904-01-01 00:33:57.821984,200.0
1904-01-01 00:33:58.001984,200.0
1904-01-01 00:33:58.121984,200.0
1904-01-01 00:33:58.521984,150.0
1904-01-01 00:33:58.581984,200.0
1904-01-01 00:33:59.061984,125.0
1904-01-01 00:33:59.141984,200.0
1904-01-01 00:33:59.281984,200.0
1904-01-01 00:33:59.641984,166.66666666666666
1904-01-01 00:33:59.741984,200.0
1904-01-01 00:34:00.001984,200.0
1904-01-01 00:34:00.581984,103.44827586206897
1904-01-01 00:34:01.061984,200.0
1904-01-01 00:34:01.421984,166.66666666666666
1904-01-01 00:34:01.521984,200.0
1904-01-01 00:34:01.901984,157.89473684210526
1904-01-01 00:34:01.981984,200.0
1904-01-01 00:34:02.041984,200.0
1904-01-01 00:34:02.381984,176.47058823529412
1904-01-01 00:34:02.701984,187.5
1904-01-01 00:34:02.821984,200.0
1904-01-01 00:34:03.041984,200.0
1904-01-01 00:34:03.181984,200.0
1904-01-01 00:34:05.101984,200.0
1904-01-01 00:34:05.321984,200.0
1904-01-01 00:34:05.401984,200.0
1904-01-01 00:34:05.621984,200.0
1904-01-01 00:34:06.141984,115.38461538461539
1904-01-01 00:34:06.301984,200.0
1904-01-01 00:34:06.421984,200.0
1904-01-01 00:34:06.561984,200.0
1904-01-01 00:34:06.801984,200.0
1904-01-01 00:34:07.281984,176.47058823529412
1904-01-01 00:34:07.781984,120.0
1904-01-01 00:34:08.161984,157.89473684210526
1904-01-01 00:34:08.601984,136.36363636363637
1904-01-01 00:34:09.241984,93.75
1904-01-01 00:34:09.501984,200.0
1904-01-01 00:34:09.721984,200.0
1904-01-01 00:34:10.121984,150.0
1904-01-01 00:34:11.361984,200.0
1904-01-01 00:34:12.001984,93.75
1904-01-01 00:34:12.181984,200.0
1904-01-01 00:34:12.361984,200.0
1904-01-01 00:34:12.501984,200.0
1904-01-01 00:34:13.121984,136.36363636363637
1904-01-01 00:34:13.201984,200.0
1904-01-01 00:34:13.581984,157.89473684210526
1904-01-01 00:34:14.141984,107.14285714285714
1904-01-01 00:34:14.261984,200.0
1904-01-01 00:34:14.641984,157.89473684210526
1904-01-01 00:34:14.761984,200.0
1904-01-01 00:34:14.821984,200.0
1904-01-01 00:34:16.621984,120.0
1904-01-01 00:34:16.781984,200.0
1904-01-01 00:34:16.881984,200.0
1904-01-01 00:34:17.021984,200.0
1904-01-01 00:34:17.121984,200.0
1904-01-01 00:34:17.181984,200.0
1904-01-01 00:34:19.681984,200.0
1904-01-01 00:34:19.801984,200.0
1904-01-01 00:34:20.201984,150.0
1904-01-01 00:34:22.741984,176.47058823529412
1904-01-01 00:34:22.801984,200.0
1904-01-01 00:34:23.201984,150.0
1904-01-01 00:34:23.441984,200.0
1904-01-01 00:34:23.521984,200.0
1904-01-01 00:34:23.761984,200.0
1904-01-01 00:34:23.981984,200.0
1904-01-01 00:34:24.141984,200.0
1904-01-01 00:34:24.261984,200.0
1904-01-01 00:34:24.761984,120.0
1904-01-01 00:34:25.261984,120.0
1904-01-01 00:34:25.741984,125.0
1904-01-01 00:34:25.841984,200.0
1904-01-01 00:34:26.241984,150.0
1904-01-01 00:34:26.701984,130.43478260869566
1904-01-01 00:34:26.761984,200.0
1904-01-01 00:34:26.961984,200.0
1904-01-01 00:34:27.201984,200.0
1904-01-01 00:34:27.881984,200.0
1904-01-01 00:34:28.041984,200.0
1904-01-01 00:34:28.161984,200.0
1904-01-01 00:34:28.221984,200.0
1904-01-01 00:34:28.721984,120.0
1904-01-01 00:34:29.121984,150.0
1904-01-01 00:34:29.361984,200.0
1904-01-01 00:34:29.621984,200.0
1904-01-01 00:34:29.701984,200.0
1904-01-01 00:34:30.201984,120.0
1904-01-01 00:34:30.281984,200.0
1904-01-01 00:34:30.561984,200.0
1904-01-01 00:34:30.641984,200.0
1904-01-01 00:34:31.181984,157.89473684210526
1904-01-01 00:34:31.501984,187.5
1904-01-01 00:34:31.661984,200.0
1904-01-01 00:34:31.741984,200.0
1904-01-01 00:34:31.841984,200.0
1904-01-01 00:34:32.141984,200.0
1904-01-01 00:34:32.561984,142.85714285714286
1904-01-01 00:34:32.941984,157.89473684210526
1904-01-01 00:34:33.041984,200.0
1904-01-01 00:34:33.121984,200.0
1904-01-01 00:34:33.441984,187.5
1904-01-01 00:34:33.601984,200.0
1904-01-01 00:34:33.881984,200.0
1904-01-01 00:34:33.941984,200.0
1904-01-01 00:34:34.081984,200.0
1904-01-01 00:34:34.221984,200.0
1904-01-01 00:34:35.541984,200.0
1904-01-01 00:34:36.501984,200.0
1904-01-01 00:34:36.561984,200.0
1904-01-01 00:34:36.961984,150.0
1904-01-01 00:34:37.381984,142.85714285714286
1904-01-01 00:34:37.621984,200.0
1904-01-01 00:34:37.721984,200.0
1904-01-01 00:34:37.921984,200.0
1904-01-01 00:34:38.561984,93.75
1904-01-01 00:34:39.041984,200.0
1904-01-01 00:34:39.361984,187.5
1904-01-01 00:34:39.961984,100.0
1904-01-01 00:34:40.341984,157.89473684210526
1904-01-01 00:34:40.461984,200.0
1904-01-01 00:34:40.921984,130.43478260869566
1904-01-01 00:34:41.321984,150.0
1904-01-01 00:34:41.621984,200.0
1904-01-01 00:34:41.801984,200.0
1904-01-01 00:34:41.941984,200.0
1904-01-01 00:34:42.341984,150.0
1904-01-01 00:34:42.581984,200.0
1904-01-01 00:34:43.741984,200.0
1904-01-01 00:34:44.781984,200.0
1904-01-01 00:34:44.921984,200.0
1904-01-01 00:34:45.181984,200.0
1904-01-01 00:34:45.661984,125.0
1904-01-01 00:34:45.841984,200.0
1904-01-01 00:34:46.361984,115.38461538461539
1904-01-01 00:34:46.641984,200.0
1904-01-01 00:34:46.821984,200.0
1904-01-01 00:34:47.001984,200.0
1904-01-01 00:34:47.121984,200.0
1904-01-01 00:34:47.621984,120.0
1904-01-01 00:34:47.901984,200.0
1904-01-01 00:34:47.981984,200.0
1904-01-01 00:34:48.041984,200.0
1904-01-01 00:34:48.121984,200.0
1904-01-01 00:34:48.621984,120.0
1904-01-01 00:34:48.681984,200.0
1904-01-01 00:34:49.061984,157.89473684210526
1904-01-01 00:34:49.221984,200.0
1904-01-01 00:34:49.321984,200.0
1904-01-01 00:34:49.641984,187.5
1904-01-01 00:34:50.221984,103.44827586206897
1904-01-01 00:34:50.341984,200.0
1904-01-01 00:34:50.481984,200.0
1904-01-01 00:34:50.981984,120.0
1904-01-01 00:34:51.141984,200.0
1904-01-01 00:34:51.281984,200.0
1904-01-01 00:34:51.661984,157.89473684210526
1904-01-01 00:34:51.761984,200.0
1904-01-01 00:34:52.161984,150.0
1904-01-01 00:34:52.581984,142.85714285714286
1904-01-01 00:34:52.641984,200.0
1904-01-01 00:34:52.821984,200.0
1904-01-01 00:34:53.141984,187.5
1904-01-01 00:34:53.361984,200.0
1904-01-01 00:34:53.621984,200.0
1904-01-01 00:34:53.741984,200.0
1904-01-01 00:34:53.801984,200.0
1904-01-01 00:34:53.861984,200.0
1904-01-01 00:34:54.101984,200.0
1904-01-01 00:34:54.501984,200.0
1904-01-01 00:34:54.601984,200.0
1904-01-01 00:34:54.801984,200.0
1904-01-01 00:34:55.021984,200.0
1904-01-01 00:34:55.081984,200.0
1904-01-01 00:34:55.261984,200.0
1904-01-01 00:34:55.561984,200.0
1904-01-01 00:34:55.641984,200.0
1904-01-01 00:34:56.061984,142.85714285714286
1904-01-01 00:34:56.121984,200.0
1904-01-01 00:34:56.321984,200.0
1904-01-01 00:34:56.541984,200.0
1904-01-01 00:34:57.021984,125.0
1904-01-01 00:34:57.221984,200.0
1904-01-01 00:34:57.381984,200.0
1904-01-01 00:34:57.461984,200.0
1904-01-01 00:34:57.721984,200.0
1904-01-01 00:34:57.981984,200.0
1904-01-01 00:34:58.481984,120.0
1904-01-01 00:34:58.681984,200.0
1904-01-01 00:34:58.801984,200.0
1904-01-01 00:34:58.961984,200.0
1904-01-01 00:34:59.461984,120.0
1904-01-01 00:34:59.581984,200.0
1904-01-01 00:35:01.141984,200.0
1904-01-01 00:35:01.441984,200.0
1904-01-01 00:35:01.941984,120.0
1904-01-01 00:35:02.161984,200.0
1904-01-01 00:35:02.441984,200.0
1904-01-01 00:35:03.081984,200.0
1904-01-01 00:35:03.141984,200.0
1904-01-01 00:35:03.201984,200.0
1904-01-01 00:35:03.341984,200.0
1904-01-01 00:35:03.461984,200.0
1904-01-01 00:35:04.561984,200.0
1904-01-01 00:35:04.981984,142.85714285714286
1904-01-01 00:35:05.161984,200.0
1904-01-01 00:35:05.401984,200.0
1904-01-01 00:35:05.461984,200.0
1904-01-01 00:35:05.781984,187.5
1904-01-01 00:35:06.161984,157.89473684210526
1904-01-01 00:35:06.241984,200.0
1904-01-01 00:35:06.321984,200.0
1904-01-01 00:35:06.461984,200.0
1904-01-01 00:35:06.581984,200.0
1904-01-01 00:35:07.321984,166.66666666666666
1904-01-01 00:35:07.461984,200.0
1904-01-01 00:35:07.941984,125.0
1904-01-01 00:35:08.441984,120.0
1904-01-01 00:35:08.921984,125.0
1904-01-01 00:35:09.261984,176.47058823529412
1904-01-01 00:35:09.901984,93.75
1904-01-01 00:35:11.881984,120.0
1904-01-01 00:35:11.941984,200.0
1904-01-01 00:35:12.381984,136.36363636363637
1904-01-01 00:35:12.561984,200.0
1904-01-01 00:35:13.081984,115.38461538461539
1904-01-01 00:35:13.161984,200.0
1904-01-01 00:35:13.381984,200.0
1904-01-01 00:35:14.781984,142.85714285714286
1904-01-01 00:35:14.861984,200.0
1904-01-01 00:35:15.221984,166.66666666666666
1904-01-01 00:35:15.341984,200.0
1904-01-01 00:35:15.441984,200.0
1904-01-01 00:35:15.541984,200.0
1904-01-01 00:35:15.681984,200.0
1904-01-01 00:35:15.841984,200.0
1904-01-01 00:35:15.941984,200.0
1904-01-01 00:35:16.241984,200.0
1904-01-01 00:35:16.441984,200.0
1904-01-01 00:35:17.301984,103.44827586206897
1904-01-01 00:35:17.781984,125.0
1904-01-01 00:35:18.421984,111.11111111111111
1904-01-01 00:35:18.721984,200.0
1904-01-01 00:35:18.861984,200.0
1904-01-01 00:35:19.041984,200.0
1904-01-01 00:35:19.261984,200.0
1904-01-01 00:35:19.741984,125.0
1904-01-01 00:35:20.001984,200.0
1904-01-01 00:35:20.241984,200.0
1904-01-01 00:35:20.341984,200.0
1904-01-01 00:35:20.721984,157.89473684210526
1904-01-01 00:35:22.041984,166.66666666666666
1904-01-01 00:35:22.381984,176.47058823529412
1904-01-01 00:35:24.221984,200.0
1904-01-01 00:35:24.741984,115.38461538461539
1904-01-01 00:35:24.901984,200.0
1904-01-01 00:35:25.061984,200.0
1904-01-01 00:35:25.241984,200.0
1904-01-01 00:35:25.401984,200.0
1904-01-01 00:35:25.621984,200.0
1904-01-01 00:35:25.701984,200.0
1904-01-01 00:35:26.921984,142.85714285714286
1904-01-01 00:35:27.221984,200.0
1904-01-01 00:35:27.701984,125.0
1904-01-01 00:35:28.581984,166.66666666666666
1904-01-01 00:35:28.921984,176.47058823529412
1904-01-01 00:35:29.341984,200.0
1904-01-01 00:35:29.421984,200.0
1904-01-01 00:35:29.781984,166.66666666666666
1904-01-01 00:35:30.041984,200.0
1904-01-01 00:35:30.121984,200.0
1904-01-01 00:35:30.661984,111.11111111111111
1904-01-01 00:35:31.041984,157.89473684210526
1904-01-01 00:35:31.141984,200.0
1904-01-01 00:35:31.681984,142.85714285714286
1904-01-01 00:35:31.841984,200.0
1904-01-01 00:35:32.181984,176.47058823529412
1904-01-01 00:35:32.361984,200.0
1904-01-01 00:35:32.461984,200.0
1904-01-01 00:35:32.681984,200.0
1904-01-01 00:35:32.801984,200.0
1904-01-01 00:35:32.901984,200.0
1904-01-01 00:35:33.181984,200.0
1904-01-01 00:35:33.341984,200.0
1904-01-01 00:35:33.501984,200.0
1904-01-01 00:35:33.641984,200.0
1904-01-01 00:35:34.181984,200.0
1904-01-01 00:35:34.301984,200.0
1904-01-01 00:35:34.681984,157.89473684210526
1904-01-01 00:35:34.921984,200.0
1904-01-01 00:35:35.201984,200.0
1904-01-01 00:35:35.481984,200.0
1904-01-01 00:35:35.701984,200.0
1904-01-01 00:35:36.081984,200.0
1904-01-01 00:35:36.221984,200.0
1904-01-01 00:35:36.321984,200.0
1904-01-01 00:35:36.721984,150.0
1904-01-01 00:35:37.001984,200.0
1904-01-01 00:35:37.261984,200.0
1904-01-01 00:35:37.461984,200.0
1904-01-01 00:35:37.661984,200.0
1904-01-01 00:35:37.781984,200.0
1904-01-01 00:35:37.881984,200.0
1904-01-01 00:35:38.041984,200.0
1904-01-01 00:35:38.381984,176.47058823529412
1904-01-01 00:35:38.641984,200.0
1904-01-01 00:35:38.821984,200.0
1904-01-01 00:35:38.941984,200.0
1904-01-01 00:35:39.001984,200.0
1904-01-01 00:35:39.441984,136.36363636363637
1904-01-01 00:35:39.801984,166.66666666666666
1904-01-01 00:35:40.201984,150.0
1904-01-01 00:35:40.921984,142.85714285714286
1904-01-01 00:35:41.021984,200.0
1904-01-01 00:35:41.361984,176.47058823529412
1904-01-01 00:35:41.541984,200.0
1904-01-01 00:35:41.741984,200.0
1904-01-01 00:35:41.821984,200.0
1904-01-01 00:35:41.981984,200.0
1904-01-01 00:35:42.141984,200.0
1904-01-01 00:35:42.401984,200.0
1904-01-01 00:35:42.801984,150.0
1904-01-01 00:35:43.601984,200.0
1904-01-01 00:35:44.141984,142.85714285714286
1904-01-01 00:35:45.421984,200.0
1904-01-01 00:35:46.301984,200.0
1904-01-01 00:35:46.581984,200.0
1904-01-01 00:35:47.481984,150.0
1904-01-01 00:35:47.741984,200.0
1904-01-01 00:35:47.841984,200.0
1904-01-01 00:35:47.941984,200.0
1904-01-01 00:35:48.101984,200.0
1904-01-01 00:35:48.401984,200.0
1904-01-01 00:35:48.621984,200.0
1904-01-01 00:35:49.461984,200.0
1904-01-01 00:35:49.521984,200.0
1904-01-01 00:35:50.061984,187.5
1904-01-01 00:35:50.581984,115.38461538461539
1904-01-01 00:35:50.661984,200.0
1904-01-01 00:35:50.861984,200.0
1904-01-01 00:35:51.161984,200.0
1904-01-01 00:35:51.321984,200.0
1904-01-01 00:35:51.641984,187.5
1904-01-01 00:35:52.061984,142.85714285714286
1904-01-01 00:35:52.141984,200.0
1904-01-01 00:35:52.321984,200.0
1904-01-01 00:35:52.421984,200.0
1904-01-01 00:35:52.841984,200.0
1904-01-01 00:35:53.221984,157.89473684210526
1904-01-01 00:35:53.601984,200.0
1904-01-01 00:35:53.981984,200.0
1904-01-01 00:35:54.621984,93.75
1904-01-01 00:35:54.981984,200.0
1904-01-01 00:35:55.541984,107.14285714285714
1904-01-01 00:35:55.701984,200.0
1904-01-01 00:35:55.861984,200.0
1904-01-01 00:35:55.941984,200.0
1904-01-01 00:35:56.081984,200.0
1904-01-01 00:35:56.341984,200.0
1904-01-01 00:35:56.741984,150.0
1904-01-01 00:35:56.981984,200.0
1904-01-01 00:35:57.681984,103.44827586206897
1904-01-01 00:35:58.721984,142.85714285714286
1904-01-01 00:35:59.241984,115.38461538461539
1904-01-01 00:35:59.361984,200.0
1904-01-01 00:35:59.881984,115.38461538461539
1904-01-01 00:36:00.221984,200.0
1904-01-01 00:36:00.361984,200.0
1904-01-01 00:36:00.461984,200.0
1904-01-01 00:36:00.561984,200.0
1904-01-01 00:36:00.641984,200.0
1904-01-01 00:36:00.781984,200.0
1904-01-01 00:36:01.041984,200.0
1904-01-01 00:36:01.481984,136.36363636363637
1904-01-01 00:36:01.561984,200.0
1904-01-01 00:36:01.841984,200.0
1904-01-01 00:36:01.941984,200.0
1904-01-01 00:36:02.221984,200.0
1904-01-01 00:36:02.641984,142.85714285714286
1904-01-01 00:36:02.881984,200.0
1904-01-01 00:36:02.981984,200.0
1904-01-01 00:36:05.301984,93.75
1904-01-01 00:36:06.761984,200.0
1904-01-01 00:36:07.341984,103.44827586206897
1904-01-01 00:36:07.841984,120.0
1904-01-01 00:36:08.081984,200.0
1904-01-01 00:36:08.501984,142.85714285714286
1904-01-01 00:36:08.741984,200.0
1904-01-01 00:36:08.841984,200.0
1904-01-01 00:36:08.941984,200.0
1904-01-01 00:36:11.941984,150.0
1904-01-01 00:36:12.301984,200.0
1904-01-01 00:36:13.721984,200.0
1904-01-01 00:36:14.101984,157.89473684210526
1904-01-01 00:36:14.241984,200.0
1904-01-01 00:36:14.781984,111.11111111111111
1904-01-01 00:36:15.301984,115.38461538461539
1904-01-01 00:36:15.841984,111.11111111111111
1904-01-01 00:36:19.581984,200.0
1904-01-01 00:36:19.721984,200.0
1904-01-01 00:36:22.881984,107.14285714285714
1904-01-01 00:36:23.341984,130.43478260869566
1904-01-01 00:36:23.841984,120.0
1904-01-01 00:36:23.941984,200.0
1904-01-01 00:36:24.081984,200.0
1904-01-01 00:36:24.461984,157.89473684210526
1904-01-01 00:36:25.421984,200.0
1904-01-01 00:36:25.721984,200.0
1904-01-01 00:36:25.901984,200.0
1904-01-01 00:36:26.221984,187.5
1904-01-01 00:36:26.381984,200.0
1904-01-01 00:36:26.681984,200.0
1904-01-01 00:36:26.761984,200.0
1904-01-01 00:36:26.901984,200.0
1904-01-01 00:36:27.161984,200.0
1904-01-01 00:36:27.441984,200.0
1904-01-01 00:36:27.981984,111.11111111111111
1904-01-01 00:36:30.781984,200.0
1904-01-01 00:36:31.181984,150.0
1904-01-01 00:36:31.461984,200.0
1904-01-01 00:36:31.921984,130.43478260869566
1904-01-01 00:36:32.221984,200.0
1904-01-01 00:36:32.401984,200.0
1904-01-01 00:36:33.041984,93.75
1904-01-01 00:36:33.261984,200.0
1904-01-01 00:36:33.761984,120.0
1904-01-01 00:36:33.961984,200.0
1904-01-01 00:36:34.161984,200.0
1904-01-01 00:36:34.281984,200.0
1904-01-01 00:36:35.641984,150.0
1904-01-01 00:36:35.801984,200.0
1904-01-01 00:36:36.301984,120.0
1904-01-01 00:36:36.741984,136.36363636363637
1904-01-01 00:36:37.181984,136.36363636363637
1904-01-01 00:36:37.321984,200.0
1904-01-01 00:36:37.381984,200.0
1904-01-01 00:36:37.861984,125.0
1904-01-01 00:36:38.081984,200.0
1904-01-01 00:36:40.061984,200.0
1904-01-01 00:36:40.361984,200.0
1904-01-01 00:36:41.781984,200.0
1904-01-01 00:36:42.781984,200.0
1904-01-01 00:36:43.161984,157.89473684210526
1904-01-01 00:36:43.681984,115.38461538461539
1904-01-01 00:36:43.781984,200.0
1904-01-01 00:36:43.981984,200.0
1904-01-01 00:36:45.181984,176.47058823529412
1904-01-01 00:36:45.261984,200.0
1904-01-01 00:36:45.781984,115.38461538461539
1904-01-01 00:36:46.021984,200.0
1904-01-01 00:36:46.121984,200.0
1904-01-01 00:36:47.581984,200.0
1904-01-01 00:36:47.681984,200.0
1904-01-01 00:36:47.881984,200.0
1904-01-01 00:36:48.401984,115.38461538461539
1904-01-01 00:36:48.481984,200.0
1904-01-01 00:36:48.561984,200.0
1904-01-01 00:36:48.641984,200.0
1904-01-01 00:36:48.921984,200.0
1904-01-01 00:36:50.061984,200.0
1904-01-01 00:36:50.181984,200.0
1904-01-01 00:36:50.501984,187.5
1904-01-01 00:36:50.581984,200.0
1904-01-01 00:36:51.001984,142.85714285714286
1904-01-01 00:36:52.561984,200.0
1904-01-01 00:36:53.061984,120.0
1904-01-01 00:36:53.561984,120.0
1904-01-01 00:36:53.761984,200.0
1904-01-01 00:36:54.081984,187.5
1904-01-01 00:36:54.501984,142.85714285714286
1904-01-01 00:36:54.941984,136.36363636363637
1904-01-01 00:36:55.101984,200.0
1904-01-01 00:36:55.381984,200.0
1904-01-01 00:36:55.621984,200.0
1904-01-01 00:36:55.921984,200.0
1904-01-01 00:36:56.501984,103.44827586206897
1904-01-01 00:36:56.601984,200.0
1904-01-01 00:36:57.101984,120.0
1904-01-01 00:36:57.181984,200.0
1904-01-01 00:36:57.701984,115.38461538461539
1904-01-01 00:36:57.961984,200.0
1904-01-01 00:36:58.401984,200.0
1904-01-01 00:36:58.501984,200.0
1904-01-01 00:37:00.081984,200.0
1904-01-01 00:37:01.321984,200.0
1904-01-01 00:37:01.561984,200.0
1904-01-01 00:37:02.041984,125.0
1904-01-01 00:37:02.521984,125.0
1904-01-01 00:37:03.961984,200.0
1904-01-01 00:37:04.441984,125.0
1904-01-01 00:37:04.581984,200.0
1904-01-01 00:37:04.941984,166.66666666666666
1904-01-01 00:37:06.041984,200.0
1904-01-01 00:37:06.321984,200.0
1904-01-01 00:37:06.521984,200.0
1904-01-01 00:37:06.701984,200.0
1904-01-01 00:37:06.961984,200.0
1904-01-01 00:37:07.201984,200.0
1904-01-01 00:37:08.401984,200.0
1904-01-01 00:37:08.501984,200.0
1904-01-01 00:37:08.701984,200.0
1904-01-01 00:37:09.041984,176.47058823529412
1904-01-01 00:37:09.161984,200.0
1904-01-01 00:37:09.301984,200.0
1904-01-01 00:37:09.381984,200.0
1904-01-01 00:37:09.521984,200.0
1904-01-01 00:37:09.661984,200.0
1904-01-01 00:37:09.761984,200.0
1904-01-01 00:37:10.001984,200.0
1904-01-01 00:37:10.441984,136.36363636363637
1904-01-01 00:37:10.501984,200.0
1904-01-01 00:37:10.661984,200.0
1904-01-01 00:37:12.141984,200.0
1904-01-01 00:37:12.261984,200.0
1904-01-01 00:37:12.641984,157.89473684210526
1904-01-01 00:37:12.901984,200.0
1904-01-01 00:37:13.041984,200.0
1904-01-01 00:37:13.141984,200.0
1904-01-01 00:37:13.561984,142.85714285714286
1904-01-01 00:37:13.641984,200.0
1904-01-01 00:37:13.841984,200.0
1904-01-01 00:37:14.041984,200.0
1904-01-01 00:37:14.141984,200.0
1904-01-01 00:37:15.821984,200.0
1904-01-01 00:37:15.921984,200.0
1904-01-01 00:37:16.281984,166.66666666666666
1904-01-01 00:37:16.641984,200.0
1904-01-01 00:37:16.861984,200.0
1904-01-01 00:37:17.201984,176.47058823529412
1904-01-01 00:37:17.461984,200.0
1904-01-01 00:37:17.541984,200.0
1904-01-01 00:37:18.121984,103.44827586206897
1904-01-01 00:37:18.621984,120.0
1904-01-01 00:37:18.721984,200.0
1904-01-01 00:37:19.101984,157.89473684210526
1904-01-01 00:37:19.241984,200.0
1904-01-01 00:37:19.361984,200.0
1904-01-01 00:37:19.501984,200.0
1904-01-01 00:37:19.861984,166.66666666666666
1904-01-01 00:37:20.081984,200.0
1904-01-01 00:37:20.561984,125.0
1904-01-01 00:37:20.701984,200.0
1904-01-01 00:37:21.061984,166.66666666666666
1904-01-01 00:37:21.541984,125.0
1904-01-01 00:37:21.801984,200.0
1904-01-01 00:37:22.041984,200.0
1904-01-01 00:37:22.181984,200.0
1904-01-01 00:37:22.541984,166.66666666666666
1904-01-01 00:37:22.981984,136.36363636363637
1904-01-01 00:37:23.521984,200.0
1904-01-01 00:37:24.021984,120.0
1904-01-01 00:37:24.521984,120.0
1904-01-01 00:37:25.021984,120.0
1904-01-01 00:37:25.141984,200.0
1904-01-01 00:37:25.521984,157.89473684210526
1904-01-01 00:37:25.741984,200.0
1904-01-01 00:37:26.021984,200.0
1904-01-01 00:37:27.821984,187.5
1904-01-01 00:37:28.481984,200.0
1904-01-01 00:37:30.321984,200.0
1904-01-01 00:37:30.461984,200.0
1904-01-01 00:37:34.401984,200.0
1904-01-01 00:37:34.541984,200.0
1904-01-01 00:37:34.601984,200.0
1904-01-01 00:37:34.681984,200.0
1904-01-01 00:37:34.901984,200.0
1904-01-01 00:37:37.781984,200.0
1904-01-01 00:37:38.121984,176.47058823529412
1904-01-01 00:37:38.301984,200.0
1904-01-01 00:37:38.421984,200.0
1904-01-01 00:37:40.661984,150.0
1904-01-01 00:37:41.061984,150.0
1904-01-01 00:37:41.441984,200.0
1904-01-01 00:37:41.861984,142.85714285714286
1904-01-01 00:37:42.301984,136.36363636363637
1904-01-01 00:37:42.701984,150.0
1904-01-01 00:37:43.161984,130.43478260869566
1904-01-01 00:37:43.521984,166.66666666666666
1904-01-01 00:37:43.781984,200.0
1904-01-01 00:37:43.881984,200.0
1904-01-01 00:37:44.161984,200.0
1904-01-01 00:37:44.481984,187.5
1904-01-01 00:37:45.001984,115.38461538461539
1904-01-01 00:37:45.501984,157.89473684210526
1904-01-01 00:37:45.661984,200.0
1904-01-01 00:37:46.221984,107.14285714285714
1904-01-01 00:37:46.301984,200.0
1904-01-01 00:37:46.681984,157.89473684210526
1904-01-01 00:37:46.881984,200.0
1904-01-01 00:37:46.981984,200.0
1904-01-01 00:37:47.141984,200.0
1904-01-01 00:37:47.381984,200.0
1904-01-01 00:37:47.681984,200.0
1904-01-01 00:37:48.181984,120.0
1904-01-01 00:37:51.141984,200.0
1904-01-01 00:37:51.241984,200.0
1904-01-01 00:37:51.741984,120.0
1904-01-01 00:37:51.961984,200.0
1904-01-01 00:37:52.241984,200.0
1904-01-01 00:37:52.401984,200.0
1904-01-01 00:37:52.481984,200.0
1904-01-01 00:37:52.741984,200.0
1904-01-01 00:37:53.241984,120.0
1904-01-01 00:37:53.581984,176.47058823529412
1904-01-01 00:37:53.741984,200.0
1904-01-01 00:37:54.141984,150.0
1904-01-01 00:37:54.241984,200.0
1904-01-01 00:37:54.561984,187.5
1904-01-01 00:37:54.681984,200.0
1904-01-01 00:37:54.741984,200.0
1904-01-01 00:37:54.881984,200.0
1904-01-01 00:37:55.241984,166.66666666666666
1904-01-01 00:37:56.081984,200.0
1904-01-01 00:37:56.241984,200.0
1904-01-01 00:37:56.461984,200.0
1904-01-01 00:37:56.941984,125.0
1904-01-01 00:37:57.121984,200.0
1904-01-01 00:37:57.241984,200.0
1904-01-01 00:37:57.661984,142.85714285714286
1904-01-01 00:37:57.741984,200.0
1904-01-01 00:37:58.081984,176.47058823529412
1904-01-01 00:37:58.841984,200.0
1904-01-01 00:37:59.001984,200.0
1904-01-01 00:37:59.141984,200.0
1904-01-01 00:37:59.241984,200.0
1904-01-01 00:37:59.301984,200.0
1904-01-01 00:37:59.501984,200.0
1904-01-01 00:37:59.621984,200.0
1904-01-01 00:37:59.761984,200.0
1904-01-01 00:38:00.261984,120.0
1904-01-01 00:38:00.761984,120.0
1904-01-01 00:38:01.381984,96.7741935483871
1904-01-01 00:38:01.761984,157.89473684210526
1904-01-01 00:38:01.901984,200.0
1904-01-01 00:38:01.961984,200.0
1904-01-01 00:38:02.261984,200.0
1904-01-01 00:38:02.481984,200.0
1904-01-01 00:38:02.741984,200.0
1904-01-01 00:38:03.101984,166.66666666666666
1904-01-01 00:38:03.721984,125.0
1904-01-01 00:38:04.221984,120.0
1904-01-01 00:38:04.501984,200.0
1904-01-01 00:38:04.701984,200.0
1904-01-01 00:38:05.181984,125.0
1904-01-01 00:38:05.501984,187.5
1904-01-01 00:38:05.681984,200.0
1904-01-01 00:38:06.161984,125.0
1904-01-01 00:38:06.721984,107.14285714285714
1904-01-01 00:38:06.801984,200.0
1904-01-01 00:38:07.141984,176.47058823529412
1904-01-01 00:38:07.241984,200.0
1904-01-01 00:38:07.641984,150.0
1904-01-01 00:38:07.701984,200.0
1904-01-01 00:38:12.721984,187.5
1904-01-01 00:38:12.921984,200.0
1904-01-01 00:38:13.241984,187.5
1904-01-01 00:38:13.421984,200.0
1904-01-01 00:38:13.761984,176.47058823529412
1904-01-01 00:38:14.281984,115.38461538461539
1904-01-01 00:38:15.801984,120.0
1904-01-01 00:38:16.181984,157.89473684210526
1904-01-01 00:38:16.721984,111.11111111111111
1904-01-01 00:38:17.181984,130.43478260869566
1904-01-01 00:38:17.821984,93.75
1904-01-01 00:38:18.321984,120.0
1904-01-01 00:38:18.841984,115.38461538461539
1904-01-01 00:38:19.141984,200.0
1904-01-01 00:38:19.341984,200.0
1904-01-01 00:38:19.441984,200.0
1904-01-01 00:38:19.861984,142.85714285714286
1904-01-01 00:38:20.381984,115.38461538461539
1904-01-01 00:38:20.601984,200.0
1904-01-01 00:38:20.901984,200.0
1904-01-01 00:38:25.041984,176.47058823529412
1904-01-01 00:38:25.181984,200.0
1904-01-01 00:38:25.561984,157.89473684210526
1904-01-01 00:38:25.941984,157.89473684210526
1904-01-01 00:38:26.061984,200.0
1904-01-01 00:38:26.381984,187.5
1904-01-01 00:38:26.561984,200.0
1904-01-01 00:38:26.961984,150.0
1904-01-01 00:38:27.081984,200.0
1904-01-01 00:38:27.201984,200.0
1904-01-01 00:38:27.561984,166.66666666666666
1904-01-01 00:38:28.061984,120.0
1904-01-01 00:38:28.161984,200.0
1904-01-01 00:38:31.081984,103.44827586206897
1904-01-01 00:38:31.581984,120.0
1904-01-01 00:38:32.101984,115.38461538461539
1904-01-01 00:38:32.241984,200.0
1904-01-01 00:38:32.321984,200.0
1904-01-01 00:38:32.621984,200.0
1904-01-01 00:38:33.141984,115.38461538461539
1904-01-01 00:38:33.661984,115.38461538461539
1904-01-01 00:38:34.161984,120.0
1904-01-01 00:38:34.681984,115.38461538461539
1904-01-01 00:38:34.961984,200.0
1904-01-01 00:38:36.281984,200.0
1904-01-01 00:38:36.701984,142.85714285714286
1904-01-01 00:38:37.201984,120.0
1904-01-01 00:38:37.541984,176.47058823529412
1904-01-01 00:38:37.701984,200.0
1904-01-01 00:38:38.001984,200.0
1904-01-01 00:38:38.181984,200.0
1904-01-01 00:38:38.681984,120.0
1904-01-01 00:38:39.161984,125.0
1904-01-01 00:38:39.221984,200.0
1904-01-01 00:38:39.381984,200.0
1904-01-01 00:38:39.481984,200.0
1904-01-01 00:38:39.561984,200.0
1904-01-01 00:38:40.061984,120.0
1904-01-01 00:38:40.121984,200.0
1904-01-01 00:38:40.461984,176.47058823529412
1904-01-01 00:38:40.601984,200.0
1904-01-01 00:38:40.981984,157.89473684210526
1904-01-01 00:38:41.081984,200.0
1904-01-01 00:38:41.281984,200.0
1904-01-01 00:38:41.601984,187.5
1904-01-01 00:38:41.761984,200.0
1904-01-01 00:38:41.841984,200.0
1904-01-01 00:38:42.041984,200.0
1904-01-01 00:38:42.261984,200.0
1904-01-01 00:38:44.021984,120.0
1904-01-01 00:38:44.381984,166.66666666666666
1904-01-01 00:38:44.521984,200.0
1904-01-01 00:38:45.021984,120.0
1904-01-01 00:38:45.521984,120.0
1904-01-01 00:38:46.021984,120.0
1904-01-01 00:38:47.961984,125.0
1904-01-01 00:38:48.441984,125.0
1904-01-01 00:38:48.921984,125.0
1904-01-01 00:38:49.401984,125.0
1904-01-01 00:38:51.301984,125.0
1904-01-01 00:38:51.781984,125.0
1904-01-01 00:38:56.621984,125.0
1904-01-01 00:38:57.101984,125.0
1904-01-01 00:38:57.581984,125.0
1904-01-01 00:39:14.701984,111.11111111111111
1904-01-01 00:39:20.301984,111.11111111111111
1904-01-01 00:39:20.841984,111.11111111111111
1904-01-01 00:39:21.361984,115.38461538461539
1904-01-01 00:39:21.901984,111.11111111111111
1904-01-01 00:39:22.421984,115.38461538461539
1904-01-01 00:39:22.961984,111.11111111111111
1904-01-01 00:39:25.181984,107.14285714285714
1904-01-01 00:39:25.761984,103.44827586206897
1904-01-01 00:39:28.721984,100.0
1904-01-01 00:39:31.061984,103.44827586206897
1904-01-01 00:39:31.641984,103.44827586206897
1904-01-01 00:39:32.221984,103.44827586206897
1904-01-01 00:39:32.781984,107.14285714285714
1904-01-01 00:39:33.341984,107.14285714285714
1904-01-01 00:39:33.901984,107.14285714285714
1904-01-01 00:39:34.461984,107.14285714285714
1904-01-01 00:39:35.021984,107.14285714285714
1904-01-01 00:39:35.581984,107.14285714285714
1904-01-01 00:39:36.141984,107.14285714285714
1904-01-01 00:39:36.721984,103.44827586206897
1904-01-01 00:39:37.301984,103.44827586206897
1904-01-01 00:39:37.861984,107.14285714285714
1904-01-01 00:39:38.401984,111.11111111111111
1904-01-01 00:39:38.981984,103.44827586206897
1904-01-01 00:39:39.561984,103.44827586206897
1904-01-01 00:39:48.561984,96.7741935483871
1904-01-01 00:39:49.181984,96.7741935483871
1904-01-01 00:39:49.821984,93.75
1904-01-01 00:39:50.441984,96.7741935483871
1904-01-01 00:39:55.821984,103.44827586206897
1904-01-01 00:39:56.401984,103.44827586206897
1904-01-01 00:39:56.961984,107.14285714285714
1904-01-01 00:39:57.081984,200.0
1904-01-01 00:39:58.081984,107.14285714285714
1904-01-01 00:40:01.201984,142.85714285714286
1904-01-01 00:40:01.361984,200.0
1904-01-01 00:40:01.721984,166.66666666666666
1904-01-01 00:40:01.861984,200.0
1904-01-01 00:40:02.261984,150.0
1904-01-01 00:40:02.781984,115.38461538461539
1904-01-01 00:40:03.081984,200.0
1904-01-01 00:40:06.041984,107.14285714285714
1904-01-01 00:40:06.621984,103.44827586206897
1904-01-01 00:40:07.161984,111.11111111111111
1904-01-01 00:40:07.241984,200.0
1904-01-01 00:40:07.721984,125.0
1904-01-01 00:40:07.921984,200.0
1904-01-01 00:40:08.401984,125.0
1904-01-01 00:40:08.981984,200.0
1904-01-01 00:40:09.101984,200.0
1904-01-01 00:40:09.401984,200.0
1904-01-01 00:40:09.761984,166.66666666666666
1904-01-01 00:40:10.081984,200.0
1904-01-01 00:40:10.201984,200.0
1904-01-01 00:40:11.421984,142.85714285714286
1904-01-01 00:40:12.001984,200.0
1904-01-01 00:40:12.061984,200.0
1904-01-01 00:40:12.161984,200.0
1904-01-01 00:40:12.621984,130.43478260869566
1904-01-01 00:40:12.701984,200.0
1904-01-01 00:40:13.301984,100.0
1904-01-01 00:40:13.381984,200.0
1904-01-01 00:40:13.721984,176.47058823529412
1904-01-01 00:40:13.821984,200.0
1904-01-01 00:40:13.921984,200.0
1904-01-01 00:40:14.161984,200.0
1904-01-01 00:40:14.761984,200.0
1904-01-01 00:40:14.881984,200.0
1904-01-01 00:40:15.041984,200.0
1904-01-01 00:40:15.521984,200.0
1904-01-01 00:40:15.621984,200.0
1904-01-01 00:40:16.121984,120.0
1904-01-01 00:40:16.661984,111.11111111111111
1904-01-01 00:40:16.781984,200.0
1904-01-01 00:40:17.061984,200.0
1904-01-01 00:40:17.161984,200.0
1904-01-01 00:40:17.241984,200.0
1904-01-01 00:40:17.621984,157.89473684210526
1904-01-01 00:40:17.761984,200.0
1904-01-01 00:40:18.721984,200.0
1904-01-01 00:40:18.781984,200.0
1904-01-01 00:40:18.981984,200.0
1904-01-01 00:40:19.441984,130.43478260869566
1904-01-01 00:40:19.521984,200.0
1904-01-01 00:40:19.661984,200.0
1904-01-01 00:40:20.101984,136.36363636363637
1904-01-01 00:40:20.641984,111.11111111111111
1904-01-01 00:40:20.881984,200.0
1904-01-01 00:40:21.141984,200.0
1904-01-01 00:40:21.421984,200.0
1904-01-01 00:40:21.961984,111.11111111111111
1904-01-01 00:40:22.481984,115.38461538461539
1904-01-01 00:40:23.021984,111.11111111111111
1904-01-01 00:40:24.621984,200.0
1904-01-01 00:40:25.701984,200.0
1904-01-01 00:40:25.781984,200.0
1904-01-01 00:40:25.881984,200.0
1904-01-01 00:40:26.221984,176.47058823529412
1904-01-01 00:40:26.381984,200.0
1904-01-01 00:40:26.761984,157.89473684210526
1904-01-01 00:40:28.861984,115.38461538461539
1904-01-01 00:40:29.381984,115.38461538461539
1904-01-01 00:40:29.901984,115.38461538461539
1904-01-01 00:40:30.421984,115.38461538461539
1904-01-01 00:40:30.941984,115.38461538461539
1904-01-01 00:40:31.461984,115.38461538461539
1904-01-01 00:40:37.321984,111.11111111111111
1904-01-01 00:40:37.861984,111.11111111111111
1904-01-01 00:40:38.401984,111.11111111111111
1904-01-01 00:40:43.281984,107.14285714285714
1904-01-01 00:40:43.821984,111.11111111111111
1904-01-01 00:40:44.361984,111.11111111111111
1904-01-01 00:40:44.921984,107.14285714285714
1904-01-01 00:40:45.461984,111.11111111111111
1904-01-01 00:40:49.181984,111.11111111111111
1904-01-01 00:40:49.721984,111.11111111111111
1904-01-01 00:40:51.921984,111.11111111111111
1904-01-01 00:40:52.481984,107.14285714285714
1904-01-01 00:40:53.021984,111.11111111111111
1904-01-01 00:40:56.261984,115.38461538461539
1904-01-01 00:40:56.721984,130.43478260869566
1904-01-01 00:40:56.801984,200.0
1904-01-01 00:40:57.301984,120.0
1904-01-01 00:40:57.801984,120.0
1904-01-01 00:40:58.321984,115.38461538461539
1904-01-01 00:41:01.821984,103.44827586206897
1904-01-01 00:41:02.961984,200.0
1904-01-01 00:41:03.261984,200.0
1904-01-01 00:41:03.481984,200.0
1904-01-01 00:41:03.541984,200.0
1904-01-01 00:41:03.761984,200.0
1904-01-01 00:41:04.121984,166.66666666666666
1904-01-01 00:41:04.281984,200.0
1904-01-01 00:41:04.661984,157.89473684210526
1904-01-01 00:41:05.261984,130.43478260869566
1904-01-01 00:41:07.421984,111.11111111111111
1904-01-01 00:41:07.961984,111.11111111111111
1904-01-01 00:41:08.521984,107.14285714285714
1904-01-01 00:41:09.081984,107.14285714285714
1904-01-01 00:41:09.621984,111.11111111111111
1904-01-01 00:41:10.181984,107.14285714285714
1904-01-01 00:41:13.901984,115.38461538461539
1904-01-01 00:41:14.441984,111.11111111111111
1904-01-01 00:41:14.961984,115.38461538461539
