Seconds,Bpm
1904-01-01 00:20:37.904,107.14285714285714
1904-01-01 00:20:37.924,200.0
1904-01-01 00:20:39.204,200.0
1904-01-01 00:20:39.364,200.0
1904-01-01 00:20:39.524,200.0
1904-01-01 00:20:39.904,157.89473684210526
1904-01-01 00:20:40.304,150.0
1904-01-01 00:20:40.404,200.0
1904-01-01 00:20:40.604,200.0
1904-01-01 00:20:40.824,200.0
1904-01-01 00:20:40.944,200.0
1904-01-01 00:20:41.064,200.0
1904-01-01 00:20:41.544,125.0
1904-01-01 00:20:41.664,200.0
1904-01-01 00:20:41.804,200.0
1904-01-01 00:20:42.284,125.0
1904-01-01 00:20:42.544,200.0
1904-01-01 00:20:42.564,200.0
1904-01-01 00:20:42.644,200.0
1904-01-01 00:20:42.904,200.0
1904-01-01 00:20:43.264,166.66666666666666
1904-01-01 00:20:43.284,200.0
1904-01-01 00:20:43.424,200.0
1904-01-01 00:20:43.544,200.0
1904-01-01 00:20:43.844,200.0
1904-01-01 00:20:43.864,200.0
1904-01-01 00:20:44.024,200.0
1904-01-01 00:20:44.264,200.0
1904-01-01 00:20:44.744,125.0
1904-01-01 00:20:44.764,200.0
1904-01-01 00:20:44.864,200.0
1904-01-01 00:20:44.984,200.0
1904-01-01 00:20:45.164,200.0
1904-01-01 00:20:45.464,200.0
1904-01-01 00:20:45.784,187.5
1904-01-01 00:20:45.904,200.0
1904-01-01 00:20:46.184,200.0
1904-01-01 00:20:46.564,157.89473684210526
1904-01-01 00:20:46.604,200.0
1904-01-01 00:20:46.864,200.0
1904-01-01 00:20:46.884,200.0
1904-01-01 00:20:47.104,200.0
1904-01-01 00:20:47.164,200.0
1904-01-01 00:20:47.284,200.0
1904-01-01 00:20:47.424,200.0
1904-01-01 00:20:47.564,200.0
1904-01-01 00:20:47.584,200.0
1904-01-01 00:20:47.764,200.0
1904-01-01 00:20:47.844,200.0
1904-01-01 00:20:48.284,136.36363636363637
1904-01-01 00:21:45.684,200.0
1904-01-01 00:21:45.864,200.0
1904-01-01 00:21:46.004,200.0
1904-01-01 00:21:46.244,200.0
1904-01-01 00:21:46.644,150.0
1904-01-01 00:21:46.904,200.0
1904-01-01 00:21:46.924,200.0
1904-01-01 00:21:47.044,200.0
1904-01-01 00:21:47.504,130.43478260869566
1904-01-01 00:21:47.844,176.47058823529412
1904-01-01 00:21:47.964,200.0
1904-01-01 00:21:48.084,200.0
1904-01-01 00:21:48.284,200.0
1904-01-01 00:21:48.464,200.0
1904-01-01 00:21:48.604,200.0
1904-01-01 00:21:48.824,200.0
1904-01-01 00:21:48.844,200.0
1904-01-01 00:21:49.064,200.0
1904-01-01 00:21:49.084,200.0
1904-01-01 00:21:49.164,200.0
1904-01-01 00:21:49.384,200.0
1904-01-01 00:21:49.444,200.0
1904-01-01 00:21:49.544,200.0
1904-01-01 00:21:49.604,200.0
1904-01-01 00:21:49.864,200.0
1904-01-01 00:21:49.884,200.0
1904-01-01 00:21:49.924,200.0
1904-01-01 00:21:50.004,200.0
1904-01-01 00:21:50.144,200.0
1904-01-01 00:21:50.304,200.0
1904-01-01 00:21:50.484,200.0
1904-01-01 00:21:50.644,200.0
1904-01-01 00:21:50.664,200.0
1904-01-01 00:21:50.764,200.0
1904-01-01 00:21:51.024,200.0
1904-01-01 00:21:51.104,200.0
1904-01-01 00:21:51.224,200.0
1904-01-01 00:21:51.344,200.0
1904-01-01 00:21:51.444,200.0
1904-01-01 00:21:51.624,200.0
1904-01-01 00:21:51.704,200.0
1904-01-01 00:21:52.104,150.0
1904-01-01 00:21:52.224,200.0
1904-01-01 00:21:52.284,200.0
1904-01-01 00:21:52.404,200.0
1904-01-01 00:21:52.424,200.0
1904-01-01 00:21:53.004,103.44827586206897
1904-01-01 00:22:00.484,200.0
1904-01-01 00:22:02.004,200.0
1904-01-01 00:22:02.204,200.0
1904-01-01 00:22:35.244,200.0
1904-01-01 00:22:35.384,200.0
1904-01-01 00:22:35.544,200.0
1904-01-01 00:22:35.984,136.36363636363637
1904-01-01 00:22:36.064,200.0
1904-01-01 00:22:36.204,200.0
1904-01-01 00:22:36.584,157.89473684210526
1904-01-01 00:22:36.744,200.0
1904-01-01 00:22:37.204,130.43478260869566
1904-01-01 00:22:38.384,200.0
1904-01-01 00:22:38.484,200.0
1904-01-01 00:22:39.904,157.89473684210526
1904-01-01 00:22:39.924,200.0
1904-01-01 00:22:40.164,200.0
1904-01-01 00:22:40.704,111.11111111111111
1904-01-01 00:22:40.724,200.0
1904-01-01 00:22:41.124,150.0
1904-01-01 00:22:41.184,200.0
1904-01-01 00:22:41.304,200.0
1904-01-01 00:22:41.504,200.0
1904-01-01 00:22:42.624,176.47058823529412
1904-01-01 00:22:42.884,200.0
1904-01-01 00:22:43.044,200.0
1904-01-01 00:22:43.484,136.36363636363637
1904-01-01 00:22:43.664,200.0
1904-01-01 00:22:43.804,200.0
1904-01-01 00:22:44.084,200.0
1904-01-01 00:22:44.544,130.43478260869566
1904-01-01 00:22:44.784,200.0
1904-01-01 00:22:46.944,200.0
1904-01-01 00:22:47.444,120.0
1904-01-01 00:22:47.464,200.0
1904-01-01 00:22:47.564,200.0
1904-01-01 00:22:48.164,100.0
1904-01-01 00:22:48.184,200.0
1904-01-01 00:22:48.544,166.66666666666666
1904-01-01 00:22:48.904,166.66666666666666
1904-01-01 00:22:48.924,200.0
1904-01-01 00:22:49.084,200.0
1904-01-01 00:22:49.184,200.0
1904-01-01 00:22:49.664,125.0
1904-01-01 00:22:49.784,200.0
1904-01-01 00:22:50.264,125.0
1904-01-01 00:22:50.424,200.0
1904-01-01 00:22:51.364,200.0
1904-01-01 00:22:51.944,103.44827586206897
1904-01-01 00:22:51.964,200.0
1904-01-01 00:22:52.044,200.0
1904-01-01 00:22:52.104,200.0
1904-01-01 00:22:52.544,136.36363636363637
1904-01-01 00:22:52.724,200.0
1904-01-01 00:22:52.744,200.0
1904-01-01 00:22:53.104,166.66666666666666
1904-01-01 00:22:53.164,200.0
1904-01-01 00:22:53.244,200.0
1904-01-01 00:22:53.504,200.0
1904-01-01 00:22:53.724,200.0
1904-01-01 00:22:53.744,200.0
1904-01-01 00:22:54.144,150.0
1904-01-01 00:22:54.264,200.0
1904-01-01 00:22:54.284,200.0
1904-01-01 00:22:54.424,200.0
1904-01-01 00:22:54.524,200.0
1904-01-01 00:22:54.784,200.0
1904-01-01 00:22:54.824,200.0
1904-01-01 00:22:55.044,200.0
1904-01-01 00:22:55.304,200.0
1904-01-01 00:22:55.324,200.0
1904-01-01 00:22:55.444,200.0
1904-01-01 00:22:55.544,200.0
1904-01-01 00:22:55.644,200.0
1904-01-01 00:22:55.804,200.0
1904-01-01 00:22:56.064,200.0
1904-01-01 00:22:56.464,150.0
1904-01-01 00:22:56.564,200.0
1904-01-01 00:22:57.144,103.44827586206897
1904-01-01 00:22:57.184,200.0
1904-01-01 00:22:57.304,200.0
1904-01-01 00:22:57.584,200.0
1904-01-01 00:22:57.824,200.0
1904-01-01 00:22:57.844,200.0
1904-01-01 00:22:58.004,200.0
1904-01-01 00:22:58.304,200.0
1904-01-01 00:22:58.484,200.0
1904-01-01 00:22:58.604,200.0
1904-01-01 00:22:58.784,200.0
1904-01-01 00:22:58.804,200.0
1904-01-01 00:22:58.924,200.0
1904-01-01 00:22:58.964,200.0
1904-01-01 00:22:59.224,200.0
1904-01-01 00:22:59.444,200.0
1904-01-01 00:22:59.484,200.0
1904-01-01 00:22:59.784,200.0
1904-01-01 00:22:59.804,200.0
1904-01-01 00:22:59.864,200.0
1904-01-01 00:23:00.064,200.0
1904-01-01 00:23:00.204,200.0
1904-01-01 00:23:00.264,200.0
1904-01-01 00:23:00.504,200.0
1904-01-01 00:23:00.584,200.0
1904-01-01 00:23:00.724,200.0
1904-01-01 00:23:01.164,136.36363636363637
1904-01-01 00:23:01.184,200.0
1904-01-01 00:23:01.364,200.0
1904-01-01 00:23:01.844,125.0
1904-01-01 00:23:01.864,200.0
1904-01-01 00:23:02.004,200.0
1904-01-01 00:23:02.104,200.0
1904-01-01 00:23:02.224,200.0
1904-01-01 00:23:02.724,120.0
1904-01-01 00:23:02.764,200.0
1904-01-01 00:23:02.924,200.0
1904-01-01 00:23:03.044,200.0
1904-01-01 00:23:03.224,200.0
1904-01-01 00:23:03.244,200.0
1904-01-01 00:23:03.384,200.0
1904-01-01 00:23:03.864,125.0
1904-01-01 00:23:03.924,200.0
1904-01-01 00:23:04.224,200.0
1904-01-01 00:23:04.484,200.0
1904-01-01 00:23:04.644,200.0
1904-01-01 00:23:04.784,200.0
1904-01-01 00:23:04.904,200.0
1904-01-01 00:23:05.044,200.0
1904-01-01 00:23:05.204,200.0
1904-01-01 00:23:05.384,200.0
1904-01-01 00:23:05.544,200.0
1904-01-01 00:23:05.764,200.0
1904-01-01 00:23:05.904,200.0
1904-01-01 00:23:06.024,200.0
1904-01-01 00:23:06.044,200.0
1904-01-01 00:23:06.104,200.0
1904-01-01 00:23:06.204,200.0
1904-01-01 00:23:06.304,200.0
1904-01-01 00:23:06.384,200.0
1904-01-01 00:23:06.584,200.0
1904-01-01 00:23:06.804,200.0
1904-01-01 00:23:06.824,200.0
1904-01-01 00:23:07.084,200.0
1904-01-01 00:23:07.504,142.85714285714286
1904-01-01 00:23:07.564,200.0
1904-01-01 00:23:07.704,200.0
1904-01-01 00:23:07.904,200.0
1904-01-01 00:23:07.984,200.0
1904-01-01 00:23:08.064,200.0
1904-01-01 00:23:08.204,200.0
1904-01-01 00:23:08.284,200.0
1904-01-01 00:23:08.364,200.0
1904-01-01 00:23:08.544,200.0
1904-01-01 00:23:08.764,200.0
1904-01-01 00:23:08.984,200.0
1904-01-01 00:23:09.004,200.0
1904-01-01 00:23:09.264,200.0
1904-01-01 00:23:09.424,200.0
1904-01-01 00:23:09.724,200.0
1904-01-01 00:23:09.744,200.0
1904-01-01 00:23:09.884,200.0
1904-01-01 00:23:10.064,200.0
1904-01-01 00:23:10.084,200.0
1904-01-01 00:23:10.244,200.0
1904-01-01 00:23:10.444,200.0
1904-01-01 00:23:10.464,200.0
1904-01-01 00:23:10.624,200.0
1904-01-01 00:23:10.724,200.0
1904-01-01 00:23:10.764,200.0
1904-01-01 00:23:10.924,200.0
1904-01-01 00:23:11.144,200.0
1904-01-01 00:23:11.164,200.0
1904-01-01 00:23:11.324,200.0
1904-01-01 00:23:11.444,200.0
1904-01-01 00:23:11.484,200.0
1904-01-01 00:23:11.684,200.0
1904-01-01 00:23:11.724,200.0
1904-01-01 00:23:11.884,200.0
1904-01-01 00:23:12.064,200.0
1904-01-01 00:23:12.464,150.0
1904-01-01 00:23:12.484,200.0
1904-01-01 00:23:12.524,200.0
1904-01-01 00:23:12.684,200.0
1904-01-01 00:23:12.904,200.0
1904-01-01 00:23:13.164,200.0
1904-01-01 00:23:13.184,200.0
1904-01-01 00:23:13.324,200.0
1904-01-01 00:23:13.424,200.0
1904-01-01 00:23:13.524,200.0
1904-01-01 00:23:14.044,115.38461538461539
1904-01-01 00:23:14.064,200.0
1904-01-01 00:23:14.184,200.0
1904-01-01 00:23:14.564,157.89473684210526
1904-01-01 00:23:14.644,200.0
1904-01-01 00:23:14.744,200.0
1904-01-01 00:23:14.784,200.0
1904-01-01 00:23:15.064,200.0
1904-01-01 00:23:15.184,200.0
1904-01-01 00:23:15.244,200.0
1904-01-01 00:23:15.324,200.0
1904-01-01 00:23:15.524,200.0
1904-01-01 00:23:15.584,200.0
1904-01-01 00:23:15.744,200.0
1904-01-01 00:23:16.124,157.89473684210526
1904-01-01 00:23:16.284,200.0
1904-01-01 00:23:16.304,200.0
1904-01-01 00:23:16.444,200.0
1904-01-01 00:23:16.684,200.0
1904-01-01 00:23:16.844,200.0
1904-01-01 00:23:16.924,200.0
1904-01-01 00:23:17.044,200.0
1904-01-01 00:23:17.144,200.0
1904-01-01 00:23:17.304,200.0
1904-01-01 00:23:17.344,200.0
1904-01-01 00:23:17.544,200.0
1904-01-01 00:23:17.644,200.0
1904-01-01 00:23:17.764,200.0
1904-01-01 00:23:17.804,200.0
1904-01-01 00:23:17.904,200.0
1904-01-01 00:23:18.044,200.0
1904-01-01 00:23:18.244,200.0
1904-01-01 00:23:18.284,200.0
1904-01-01 00:23:18.384,200.0
1904-01-01 00:23:18.424,200.0
1904-01-01 00:23:18.544,200.0
1904-01-01 00:23:18.624,200.0
1904-01-01 00:23:18.844,200.0
1904-01-01 00:23:18.904,200.0
1904-01-01 00:23:18.964,200.0
1904-01-01 00:23:19.104,200.0
1904-01-01 00:23:19.124,200.0
1904-01-01 00:23:19.264,200.0
1904-01-01 00:23:19.384,200.0
1904-01-01 00:23:19.504,200.0
1904-01-01 00:23:19.904,150.0
1904-01-01 00:23:20.044,200.0
1904-01-01 00:23:20.084,200.0
1904-01-01 00:23:20.184,200.0
1904-01-01 00:23:20.404,200.0
1904-01-01 00:23:20.444,200.0
1904-01-01 00:23:20.584,200.0
1904-01-01 00:23:20.644,200.0
1904-01-01 00:23:20.984,176.47058823529412
1904-01-01 00:23:21.144,200.0
1904-01-01 00:23:21.284,200.0
1904-01-01 00:23:21.404,200.0
1904-01-01 00:23:21.544,200.0
1904-01-01 00:23:21.624,200.0
1904-01-01 00:23:21.684,200.0
1904-01-01 00:23:21.884,200.0
1904-01-01 00:23:22.084,200.0
1904-01-01 00:23:22.144,200.0
1904-01-01 00:23:22.384,200.0
1904-01-01 00:23:22.404,200.0
1904-01-01 00:23:22.844,136.36363636363637
1904-01-01 00:23:22.864,200.0
1904-01-01 00:23:23.244,157.89473684210526
1904-01-01 00:23:23.324,200.0
1904-01-01 00:23:23.484,200.0
1904-01-01 00:23:23.744,200.0
1904-01-01 00:23:24.104,166.66666666666666
1904-01-01 00:23:24.264,200.0
1904-01-01 00:23:24.324,200.0
1904-01-01 00:23:24.424,200.0
1904-01-01 00:23:24.544,200.0
1904-01-01 00:23:24.604,200.0
1904-01-01 00:23:24.684,200.0
1904-01-01 00:23:24.824,200.0
1904-01-01 00:23:24.964,200.0
1904-01-01 00:23:25.064,200.0
1904-01-01 00:23:25.124,200.0
1904-01-01 00:23:25.224,200.0
1904-01-01 00:23:25.364,200.0
1904-01-01 00:23:26.284,200.0
1904-01-01 00:23:26.544,200.0
1904-01-01 00:23:26.644,200.0
1904-01-01 00:23:27.024,157.89473684210526
1904-01-01 00:23:27.044,200.0
1904-01-01 00:23:27.204,200.0
1904-01-01 00:23:27.244,200.0
1904-01-01 00:23:27.284,200.0
1904-01-01 00:23:27.564,200.0
1904-01-01 00:23:27.644,200.0
1904-01-01 00:23:27.744,200.0
1904-01-01 00:23:28.024,200.0
1904-01-01 00:23:28.124,200.0
1904-01-01 00:23:28.324,200.0
1904-01-01 00:23:28.444,200.0
1904-01-01 00:23:28.644,200.0
1904-01-01 00:23:28.744,200.0
1904-01-01 00:23:29.024,200.0
1904-01-01 00:23:29.244,200.0
1904-01-01 00:23:29.344,200.0
1904-01-01 00:23:29.404,200.0
1904-01-01 00:23:29.484,200.0
1904-01-01 00:23:30.064,103.44827586206897
1904-01-01 00:23:30.184,200.0
1904-01-01 00:23:30.404,200.0
1904-01-01 00:23:30.484,200.0
1904-01-01 00:23:30.864,157.89473684210526
1904-01-01 00:23:30.884,200.0
1904-01-01 00:23:31.724,200.0
1904-01-01 00:23:32.264,111.11111111111111
1904-01-01 00:23:32.284,200.0
1904-01-01 00:23:32.324,200.0
1904-01-01 00:23:32.744,142.85714285714286
1904-01-01 00:23:32.964,200.0
1904-01-01 00:23:33.004,200.0
1904-01-01 00:23:33.444,136.36363636363637
1904-01-01 00:23:33.684,200.0
1904-01-01 00:23:33.944,200.0
1904-01-01 00:23:34.404,130.43478260869566
1904-01-01 00:23:34.964,107.14285714285714
1904-01-01 00:23:35.124,200.0
1904-01-01 00:23:35.204,200.0
1904-01-01 00:23:35.524,187.5
1904-01-01 00:23:35.844,187.5
1904-01-01 00:23:35.864,200.0
1904-01-01 00:23:36.264,150.0
1904-01-01 00:23:36.624,166.66666666666666
1904-01-01 00:23:36.644,200.0
1904-01-01 00:23:36.724,200.0
1904-01-01 00:23:36.784,200.0
1904-01-01 00:23:36.824,200.0
1904-01-01 00:23:36.884,200.0
1904-01-01 00:23:37.024,200.0
1904-01-01 00:23:37.384,166.66666666666666
1904-01-01 00:23:37.484,200.0
1904-01-01 00:23:37.564,200.0
1904-01-01 00:23:37.664,200.0
1904-01-01 00:23:38.124,130.43478260869566
1904-01-01 00:23:38.144,200.0
1904-01-01 00:23:38.384,200.0
1904-01-01 00:23:38.704,187.5
1904-01-01 00:23:38.824,200.0
1904-01-01 00:23:38.864,200.0
1904-01-01 00:23:39.324,130.43478260869566
1904-01-01 00:23:39.584,200.0
1904-01-01 00:23:39.724,200.0
1904-01-01 00:23:39.864,200.0
1904-01-01 00:23:40.024,200.0
1904-01-01 00:23:40.104,200.0
1904-01-01 00:23:40.264,200.0
1904-01-01 00:23:40.284,200.0
1904-01-01 00:23:40.484,200.0
1904-01-01 00:23:40.664,200.0
1904-01-01 00:23:40.684,200.0
1904-01-01 00:23:40.964,200.0
1904-01-01 00:23:41.204,200.0
1904-01-01 00:23:41.224,200.0
1904-01-01 00:23:41.484,200.0
1904-01-01 00:23:41.544,200.0
1904-01-01 00:23:41.664,200.0
1904-01-01 00:23:41.784,200.0
1904-01-01 00:23:41.924,200.0
1904-01-01 00:23:41.964,200.0
1904-01-01 00:23:42.204,200.0
1904-01-01 00:23:42.344,200.0
1904-01-01 00:23:42.484,200.0
1904-01-01 00:23:42.584,200.0
1904-01-01 00:23:42.684,200.0
1904-01-01 00:23:42.864,200.0
1904-01-01 00:23:43.024,200.0
1904-01-01 00:23:43.104,200.0
1904-01-01 00:23:43.504,150.0
1904-01-01 00:23:43.544,200.0
1904-01-01 00:23:43.664,200.0
1904-01-01 00:23:43.684,200.0
1904-01-01 00:23:43.944,200.0
1904-01-01 00:23:44.104,200.0
1904-01-01 00:23:44.184,200.0
1904-01-01 00:23:44.304,200.0
1904-01-01 00:23:44.344,200.0
1904-01-01 00:23:44.544,200.0
1904-01-01 00:23:44.984,136.36363636363637
1904-01-01 00:23:45.004,200.0
1904-01-01 00:23:45.424,142.85714285714286
1904-01-01 00:23:45.644,200.0
1904-01-01 00:23:45.664,200.0
1904-01-01 00:23:46.424,200.0
1904-01-01 00:23:46.584,200.0
1904-01-01 00:23:47.044,130.43478260869566
1904-01-01 00:23:47.064,200.0
1904-01-01 00:23:48.764,200.0
1904-01-01 00:23:49.084,187.5
1904-01-01 00:23:49.104,200.0
1904-01-01 00:23:49.244,200.0
1904-01-01 00:23:49.704,130.43478260869566
1904-01-01 00:23:49.964,200.0
1904-01-01 00:23:50.104,200.0
1904-01-01 00:23:50.224,200.0
1904-01-01 00:23:50.664,136.36363636363637
1904-01-01 00:23:51.204,111.11111111111111
1904-01-01 00:23:51.364,200.0
1904-01-01 00:23:51.744,157.89473684210526
1904-01-01 00:23:51.904,200.0
1904-01-01 00:23:52.064,200.0
1904-01-01 00:23:52.444,157.89473684210526
1904-01-01 00:23:52.464,200.0
1904-01-01 00:23:52.664,200.0
1904-01-01 00:23:52.764,200.0
1904-01-01 00:23:52.804,200.0
1904-01-01 00:23:52.884,200.0
1904-01-01 00:23:53.424,111.11111111111111
1904-01-01 00:23:53.444,200.0
1904-01-01 00:23:53.564,200.0
1904-01-01 00:23:53.964,150.0
1904-01-01 00:23:54.104,200.0
1904-01-01 00:23:54.124,200.0
1904-01-01 00:23:54.544,142.85714285714286
1904-01-01 00:23:54.804,200.0
1904-01-01 00:23:54.824,200.0
1904-01-01 00:23:55.104,200.0
1904-01-01 00:23:55.244,200.0
1904-01-01 00:23:55.304,200.0
1904-01-01 00:23:55.504,200.0
1904-01-01 00:23:55.924,142.85714285714286
1904-01-01 00:23:56.004,200.0
1904-01-01 00:23:56.204,200.0
1904-01-01 00:23:56.444,200.0
1904-01-01 00:23:56.584,200.0
1904-01-01 00:23:56.964,157.89473684210526
1904-01-01 00:23:57.184,200.0
1904-01-01 00:23:57.484,200.0
1904-01-01 00:23:57.624,200.0
1904-01-01 00:23:57.844,200.0
1904-01-01 00:23:57.984,200.0
1904-01-01 00:23:58.304,187.5
1904-01-01 00:23:58.324,200.0
1904-01-01 00:23:58.684,166.66666666666666
1904-01-01 00:23:58.824,200.0
1904-01-01 00:23:59.184,166.66666666666666
1904-01-01 00:23:59.204,200.0
1904-01-01 00:23:59.344,200.0
1904-01-01 00:23:59.724,157.89473684210526
1904-01-01 00:23:59.824,200.0
1904-01-01 00:23:59.844,200.0
1904-01-01 00:23:59.924,200.0
1904-01-01 00:24:00.144,200.0
1904-01-01 00:24:00.184,200.0
1904-01-01 00:24:00.404,200.0
1904-01-01 00:24:00.424,200.0
1904-01-01 00:24:00.884,130.43478260869566
1904-01-01 00:24:01.044,200.0
1904-01-01 00:24:01.104,200.0
1904-01-01 00:24:01.384,200.0
1904-01-01 00:24:01.784,150.0
1904-01-01 00:24:01.804,200.0
1904-01-01 00:24:01.904,200.0
1904-01-01 00:24:01.964,200.0
1904-01-01 00:24:02.304,176.47058823529412
1904-01-01 00:24:02.464,200.0
1904-01-01 00:24:02.484,200.0
1904-01-01 00:24:02.884,150.0
1904-01-01 00:24:03.064,200.0
1904-01-01 00:24:03.164,200.0
1904-01-01 00:24:03.704,111.11111111111111
1904-01-01 00:24:03.864,200.0
1904-01-01 00:24:03.944,200.0
1904-01-01 00:24:04.084,200.0
1904-01-01 00:24:04.144,200.0
1904-01-01 00:24:04.484,176.47058823529412
1904-01-01 00:24:04.544,200.0
1904-01-01 00:24:05.064,115.38461538461539
1904-01-01 00:24:05.204,200.0
1904-01-01 00:24:05.264,200.0
1904-01-01 00:24:05.444,200.0
1904-01-01 00:24:05.624,200.0
1904-01-01 00:24:05.804,200.0
1904-01-01 00:24:05.904,200.0
1904-01-01 00:24:06.084,200.0
1904-01-01 00:24:06.184,200.0
1904-01-01 00:24:06.304,200.0
1904-01-01 00:24:06.564,200.0
1904-01-01 00:24:06.584,200.0
1904-01-01 00:24:06.704,200.0
1904-01-01 00:24:07.244,111.11111111111111
1904-01-01 00:24:07.264,200.0
1904-01-01 00:24:07.424,200.0
1904-01-01 00:24:07.944,115.38461538461539
1904-01-01 00:24:07.964,200.0
1904-01-01 00:24:08.064,200.0
1904-01-01 00:24:08.624,107.14285714285714
1904-01-01 00:24:08.644,200.0
1904-01-01 00:24:08.824,200.0
1904-01-01 00:24:09.164,176.47058823529412
1904-01-01 00:24:09.324,200.0
1904-01-01 00:24:09.524,200.0
1904-01-01 00:24:09.544,200.0
1904-01-01 00:24:09.664,200.0
1904-01-01 00:24:09.904,200.0
1904-01-01 00:24:09.924,200.0
1904-01-01 00:24:10.124,200.0
1904-01-01 00:24:10.624,120.0
1904-01-01 00:24:11.044,142.85714285714286
1904-01-01 00:24:11.064,200.0
1904-01-01 00:24:11.184,200.0
1904-01-01 00:24:11.324,200.0
1904-01-01 00:24:11.444,200.0
1904-01-01 00:24:11.464,200.0
1904-01-01 00:24:11.724,200.0
1904-01-01 00:24:11.804,200.0
1904-01-01 00:24:12.144,176.47058823529412
1904-01-01 00:24:12.164,200.0
1904-01-01 00:24:12.324,200.0
1904-01-01 00:24:12.484,200.0
1904-01-01 00:24:12.724,200.0
1904-01-01 00:24:12.864,200.0
1904-01-01 00:24:12.924,200.0
1904-01-01 00:24:13.064,200.0
1904-01-01 00:24:13.264,200.0
1904-01-01 00:24:13.564,200.0
1904-01-01 00:24:13.584,200.0
1904-01-01 00:24:14.004,142.85714285714286
1904-01-01 00:24:14.024,200.0
1904-01-01 00:24:14.364,176.47058823529412
1904-01-01 00:24:14.384,200.0
1904-01-01 00:24:14.524,200.0
1904-01-01 00:24:14.944,142.85714285714286
1904-01-01 00:24:14.964,200.0
1904-01-01 00:24:15.104,200.0
1904-01-01 00:24:15.464,166.66666666666666
1904-01-01 00:24:15.644,200.0
1904-01-01 00:24:15.764,200.0
1904-01-01 00:24:16.044,200.0
1904-01-01 00:24:16.204,200.0
1904-01-01 00:24:16.324,200.0
1904-01-01 00:24:16.584,200.0
1904-01-01 00:24:16.644,200.0
1904-01-01 00:24:16.744,200.0
1904-01-01 00:24:17.024,200.0
1904-01-01 00:24:17.144,200.0
1904-01-01 00:24:17.344,200.0
1904-01-01 00:24:17.684,176.47058823529412
1904-01-01 00:24:18.024,176.47058823529412
1904-01-01 00:24:18.384,166.66666666666666
1904-01-01 00:24:18.404,200.0
1904-01-01 00:24:18.444,200.0
1904-01-01 00:24:18.764,187.5
1904-01-01 00:24:18.784,200.0
1904-01-01 00:24:18.864,200.0
1904-01-01 00:24:18.944,200.0
1904-01-01 00:24:19.084,200.0
1904-01-01 00:24:19.104,200.0
1904-01-01 00:24:19.344,200.0
1904-01-01 00:24:19.504,200.0
1904-01-01 00:24:19.784,200.0
1904-01-01 00:24:19.884,200.0
1904-01-01 00:24:19.984,200.0
1904-01-01 00:24:20.204,200.0
1904-01-01 00:24:20.464,200.0
1904-01-01 00:24:20.664,200.0
1904-01-01 00:24:20.864,200.0
1904-01-01 00:24:21.164,200.0
1904-01-01 00:24:21.184,200.0
1904-01-01 00:24:21.404,200.0
1904-01-01 00:24:21.504,200.0
1904-01-01 00:24:21.684,200.0
1904-01-01 00:24:21.824,200.0
1904-01-01 00:24:21.884,200.0
1904-01-01 00:24:22.344,130.43478260869566
1904-01-01 00:24:22.564,200.0
1904-01-01 00:24:22.584,200.0
1904-01-01 00:24:22.624,200.0
1904-01-01 00:24:22.844,200.0
1904-01-01 00:24:23.004,200.0
1904-01-01 00:24:23.264,200.0
1904-01-01 00:24:23.444,200.0
1904-01-01 00:24:23.604,200.0
1904-01-01 00:24:23.824,200.0
1904-01-01 00:24:23.984,200.0
1904-01-01 00:24:55.244,200.0
1904-01-01 00:24:55.584,176.47058823529412
1904-01-01 00:24:55.744,200.0
1904-01-01 00:24:55.964,200.0
1904-01-01 00:24:56.184,200.0
1904-01-01 00:24:56.264,200.0
1904-01-01 00:24:56.464,200.0
1904-01-01 00:24:56.564,200.0
1904-01-01 00:24:56.724,200.0
1904-01-01 00:24:56.984,200.0
1904-01-01 00:24:57.084,200.0
1904-01-01 00:24:57.164,200.0
1904-01-01 00:24:58.444,107.14285714285714
1904-01-01 00:24:58.604,200.0
1904-01-01 00:24:58.624,200.0
1904-01-01 00:24:58.804,200.0
1904-01-01 00:24:59.024,200.0
1904-01-01 00:24:59.184,200.0
1904-01-01 00:24:59.324,200.0
1904-01-01 00:24:59.384,200.0
1904-01-01 00:24:59.424,200.0
1904-01-01 00:24:59.724,200.0
1904-01-01 00:24:59.864,200.0
1904-01-01 00:24:59.924,200.0
1904-01-01 00:25:00.044,200.0
1904-01-01 00:25:00.084,200.0
1904-01-01 00:25:00.144,200.0
1904-01-01 00:25:00.244,200.0
1904-01-01 00:25:00.324,200.0
1904-01-01 00:25:00.904,103.44827586206897
1904-01-01 00:25:00.924,200.0
1904-01-01 00:25:01.144,200.0
1904-01-01 00:25:01.304,200.0
1904-01-01 00:25:01.544,200.0
1904-01-01 00:25:01.684,200.0
1904-01-01 00:25:01.884,200.0
1904-01-01 00:25:02.284,150.0
1904-01-01 00:25:02.424,200.0
1904-01-01 00:25:02.544,200.0
1904-01-01 00:25:02.664,200.0
1904-01-01 00:25:02.884,200.0
1904-01-01 00:25:03.044,200.0
1904-01-01 00:25:03.184,200.0
1904-01-01 00:25:03.224,200.0
1904-01-01 00:25:03.424,200.0
1904-01-01 00:25:03.544,200.0
1904-01-01 00:25:03.664,200.0
1904-01-01 00:25:03.944,200.0
1904-01-01 00:25:03.964,200.0
1904-01-01 00:25:04.144,200.0
1904-01-01 00:25:04.404,200.0
1904-01-01 00:25:04.704,200.0
1904-01-01 00:25:04.724,200.0
1904-01-01 00:25:04.844,200.0
1904-01-01 00:25:05.084,200.0
1904-01-01 00:25:05.124,200.0
1904-01-01 00:25:05.484,166.66666666666666
1904-01-01 00:25:05.744,200.0
1904-01-01 00:25:06.144,150.0
1904-01-01 00:25:06.284,200.0
1904-01-01 00:25:07.184,200.0
1904-01-01 00:25:07.304,200.0
1904-01-01 00:25:07.364,200.0
1904-01-01 00:25:07.684,187.5
1904-01-01 00:25:07.704,200.0
1904-01-01 00:25:07.824,200.0
1904-01-01 00:25:07.984,200.0
1904-01-01 00:25:08.244,200.0
1904-01-01 00:25:08.344,200.0
1904-01-01 00:25:08.404,200.0
1904-01-01 00:25:08.604,200.0
1904-01-01 00:25:08.744,200.0
1904-01-01 00:25:08.884,200.0
1904-01-01 00:25:09.224,176.47058823529412
1904-01-01 00:25:09.424,200.0
1904-01-01 00:25:09.664,200.0
1904-01-01 00:25:09.964,200.0
1904-01-01 00:25:10.124,200.0
1904-01-01 00:25:10.144,200.0
1904-01-01 00:25:10.184,200.0
1904-01-01 00:25:10.384,200.0
1904-01-01 00:25:10.564,200.0
1904-01-01 00:25:10.904,176.47058823529412
1904-01-01 00:25:11.044,200.0
1904-01-01 00:25:11.644,100.0
1904-01-01 00:25:11.664,200.0
1904-01-01 00:25:11.844,200.0
1904-01-01 00:25:12.004,200.0
1904-01-01 00:25:12.144,200.0
1904-01-01 00:25:12.164,200.0
1904-01-01 00:25:12.264,200.0
1904-01-01 00:25:12.404,200.0
1904-01-01 00:25:12.584,200.0
1904-01-01 00:25:12.664,200.0
1904-01-01 00:25:12.744,200.0
1904-01-01 00:25:13.144,150.0
1904-01-01 00:25:13.464,187.5
1904-01-01 00:25:13.664,200.0
1904-01-01 00:25:13.764,200.0
1904-01-01 00:25:13.904,200.0
1904-01-01 00:25:14.184,200.0
1904-01-01 00:25:14.244,200.0
1904-01-01 00:25:14.324,200.0
1904-01-01 00:25:14.404,200.0
1904-01-01 00:25:14.444,200.0
1904-01-01 00:25:14.664,200.0
1904-01-01 00:25:14.744,200.0
1904-01-01 00:25:14.924,200.0
1904-01-01 00:25:15.404,125.0
1904-01-01 00:25:15.444,200.0
1904-01-01 00:25:15.624,200.0
1904-01-01 00:25:15.984,166.66666666666666
1904-01-01 00:25:16.144,200.0
1904-01-01 00:25:16.384,200.0
1904-01-01 00:25:16.524,200.0
1904-01-01 00:25:16.604,200.0
1904-01-01 00:25:16.744,200.0
1904-01-01 00:25:16.884,200.0
1904-01-01 00:25:17.144,200.0
1904-01-01 00:25:17.464,187.5
1904-01-01 00:25:17.664,200.0
1904-01-01 00:25:17.784,200.0
1904-01-01 00:25:17.884,200.0
1904-01-01 00:25:18.044,200.0
1904-01-01 00:25:18.164,200.0
1904-01-01 00:25:18.384,200.0
1904-01-01 00:25:18.584,200.0
1904-01-01 00:25:18.724,200.0
1904-01-01 00:25:19.064,176.47058823529412
1904-01-01 00:25:19.144,200.0
1904-01-01 00:25:19.324,200.0
1904-01-01 00:25:19.684,166.66666666666666
1904-01-01 00:25:19.784,200.0
1904-01-01 00:25:20.024,200.0
1904-01-01 00:25:20.244,200.0
1904-01-01 00:25:20.364,200.0
1904-01-01 00:25:20.524,200.0
1904-01-01 00:25:20.764,200.0
1904-01-01 00:25:20.824,200.0
1904-01-01 00:25:20.924,200.0
1904-01-01 00:25:20.964,200.0
1904-01-01 00:25:21.104,200.0
1904-01-01 00:25:21.264,200.0
1904-01-01 00:25:21.364,200.0
1904-01-01 00:25:21.704,176.47058823529412
1904-01-01 00:25:23.044,176.47058823529412
1904-01-01 00:25:23.224,200.0
1904-01-01 00:25:23.404,200.0
1904-01-01 00:25:23.424,200.0
1904-01-01 00:25:23.584,200.0
1904-01-01 00:25:23.644,200.0
1904-01-01 00:25:24.764,176.47058823529412
1904-01-01 00:25:24.864,200.0
1904-01-01 00:25:25.244,157.89473684210526
1904-01-01 00:25:25.584,176.47058823529412
1904-01-01 00:25:25.604,200.0
1904-01-01 00:25:25.844,200.0
1904-01-01 00:25:26.044,200.0
1904-01-01 00:25:26.344,200.0
1904-01-01 00:25:26.384,200.0
1904-01-01 00:25:26.524,200.0
1904-01-01 00:25:26.784,200.0
1904-01-01 00:25:27.064,200.0
1904-01-01 00:25:27.084,200.0
1904-01-01 00:25:27.184,200.0
1904-01-01 00:25:27.324,200.0
1904-01-01 00:25:27.504,200.0
1904-01-01 00:25:27.644,200.0
1904-01-01 00:25:27.804,200.0
1904-01-01 00:25:28.044,200.0
1904-01-01 00:25:28.164,200.0
1904-01-01 00:25:28.524,166.66666666666666
1904-01-01 00:25:28.544,200.0
1904-01-01 00:25:28.804,200.0
1904-01-01 00:25:29.244,136.36363636363637
1904-01-01 00:25:29.324,200.0
1904-01-01 00:25:29.444,200.0
1904-01-01 00:25:29.664,200.0
1904-01-01 00:25:29.804,200.0
1904-01-01 00:25:29.964,200.0
1904-01-01 00:25:30.204,200.0
1904-01-01 00:25:30.404,200.0
1904-01-01 00:25:30.644,200.0
1904-01-01 00:25:30.664,200.0
1904-01-01 00:25:30.784,200.0
1904-01-01 00:25:30.864,200.0
1904-01-01 00:25:31.064,200.0
1904-01-01 00:25:31.304,200.0
1904-01-01 00:25:31.324,200.0
1904-01-01 00:25:32.264,200.0
1904-01-01 00:25:32.364,200.0
1904-01-01 00:25:32.644,200.0
1904-01-01 00:25:33.024,157.89473684210526
1904-01-01 00:25:33.304,200.0
1904-01-01 00:25:33.324,200.0
1904-01-01 00:25:33.424,200.0
1904-01-01 00:25:33.484,200.0
1904-01-01 00:25:33.984,120.0
1904-01-01 00:25:34.124,200.0
1904-01-01 00:25:34.224,200.0
1904-01-01 00:25:34.264,200.0
1904-01-01 00:25:34.484,200.0
1904-01-01 00:25:34.504,200.0
1904-01-01 00:25:34.664,200.0
1904-01-01 00:25:35.184,115.38461538461539
1904-01-01 00:25:35.204,200.0
1904-01-01 00:25:35.344,200.0
1904-01-01 00:25:35.584,200.0
1904-01-01 00:25:35.644,200.0
1904-01-01 00:25:35.764,200.0
1904-01-01 00:25:36.044,200.0
1904-01-01 00:25:36.104,200.0
1904-01-01 00:25:36.264,200.0
1904-01-01 00:25:36.664,150.0
1904-01-01 00:25:36.724,200.0
1904-01-01 00:25:36.784,200.0
1904-01-01 00:25:36.984,200.0
1904-01-01 00:25:37.264,200.0
1904-01-01 00:25:37.364,200.0
1904-01-01 00:25:37.424,200.0
1904-01-01 00:25:37.464,200.0
1904-01-01 00:25:38.924,200.0
1904-01-01 00:25:39.064,200.0
1904-01-01 00:25:39.364,200.0
1904-01-01 00:25:39.424,200.0
1904-01-01 00:25:39.504,200.0
1904-01-01 00:25:39.684,200.0
1904-01-01 00:25:40.204,115.38461538461539
1904-01-01 00:25:40.424,200.0
1904-01-01 00:25:40.504,200.0
1904-01-01 00:25:40.744,200.0
1904-01-01 00:25:40.864,200.0
1904-01-01 00:25:40.964,200.0
1904-01-01 00:25:41.044,200.0
1904-01-01 00:25:41.164,200.0
1904-01-01 00:25:41.244,200.0
1904-01-01 00:25:41.504,200.0
1904-01-01 00:25:41.584,200.0
1904-01-01 00:25:41.644,200.0
1904-01-01 00:25:42.044,150.0
1904-01-01 00:25:42.184,200.0
1904-01-01 00:25:42.244,200.0
1904-01-01 00:25:42.844,100.0
1904-01-01 00:25:44.364,200.0
1904-01-01 00:25:44.824,130.43478260869566
1904-01-01 00:25:44.884,200.0
1904-01-01 00:25:45.004,200.0
1904-01-01 00:25:45.304,200.0
1904-01-01 00:25:45.444,200.0
1904-01-01 00:25:45.464,200.0
1904-01-01 00:25:46.044,103.44827586206897
1904-01-01 00:25:46.084,200.0
1904-01-01 00:25:46.984,200.0
1904-01-01 00:25:47.264,200.0
1904-01-01 00:25:47.364,200.0
1904-01-01 00:25:47.424,200.0
1904-01-01 00:25:47.524,200.0
1904-01-01 00:25:48.064,111.11111111111111
1904-01-01 00:25:48.924,200.0
1904-01-01 00:25:49.164,200.0
1904-01-01 00:25:49.364,200.0
1904-01-01 00:25:49.424,200.0
1904-01-01 00:25:49.704,200.0
1904-01-01 00:25:49.944,200.0
1904-01-01 00:25:50.084,200.0
1904-01-01 00:25:50.244,200.0
1904-01-01 00:25:50.604,166.66666666666666
1904-01-01 00:25:50.744,200.0
1904-01-01 00:25:51.884,166.66666666666666
1904-01-01 00:25:51.964,200.0
1904-01-01 00:25:52.144,200.0
1904-01-01 00:25:52.424,200.0
1904-01-01 00:25:52.604,200.0
1904-01-01 00:25:52.704,200.0
1904-01-01 00:25:52.824,200.0
1904-01-01 00:25:52.964,200.0
1904-01-01 00:25:53.504,111.11111111111111
1904-01-01 00:25:53.664,200.0
1904-01-01 00:25:53.784,200.0
1904-01-01 00:25:54.044,200.0
1904-01-01 00:25:54.124,200.0
1904-01-01 00:25:54.244,200.0
1904-01-01 00:25:55.064,200.0
1904-01-01 00:25:55.144,200.0
1904-01-01 00:25:55.204,200.0
1904-01-01 00:25:55.684,125.0
1904-01-01 00:25:55.844,200.0
1904-01-01 00:25:55.944,200.0
1904-01-01 00:25:56.424,125.0
1904-01-01 00:25:56.444,200.0
1904-01-01 00:25:56.564,200.0
1904-01-01 00:25:57.144,103.44827586206897
1904-01-01 00:25:57.164,200.0
1904-01-01 00:25:57.284,200.0
1904-01-01 00:25:57.364,200.0
1904-01-01 00:25:57.624,200.0
1904-01-01 00:25:57.844,200.0
1904-01-01 00:25:58.024,200.0
1904-01-01 00:25:58.104,200.0
1904-01-01 00:25:58.404,200.0
1904-01-01 00:25:58.544,200.0
1904-01-01 00:25:58.924,157.89473684210526
1904-01-01 00:25:59.084,200.0
1904-01-01 00:25:59.244,200.0
1904-01-01 00:25:59.344,200.0
1904-01-01 00:25:59.484,200.0
1904-01-01 00:25:59.904,142.85714285714286
1904-01-01 00:25:59.924,200.0
1904-01-01 00:26:00.024,200.0
1904-01-01 00:26:00.084,200.0
1904-01-01 00:26:00.164,200.0
1904-01-01 00:26:00.224,200.0
1904-01-01 00:26:00.324,200.0
1904-01-01 00:26:00.584,200.0
1904-01-01 00:26:00.644,200.0
1904-01-01 00:26:00.824,200.0
1904-01-01 00:26:01.104,200.0
1904-01-01 00:26:01.264,200.0
1904-01-01 00:26:01.364,200.0
1904-01-01 00:26:01.544,200.0
1904-01-01 00:26:01.924,157.89473684210526
1904-01-01 00:26:01.944,200.0
1904-01-01 00:26:02.164,200.0
1904-01-01 00:26:02.264,200.0
1904-01-01 00:26:02.424,200.0
1904-01-01 00:26:02.604,200.0
1904-01-01 00:26:02.624,200.0
1904-01-01 00:26:04.264,200.0
1904-01-01 00:26:04.284,200.0
1904-01-01 00:26:04.484,200.0
1904-01-01 00:26:04.744,200.0
1904-01-01 00:26:04.764,200.0
1904-01-01 00:26:04.844,200.0
1904-01-01 00:26:05.844,200.0
1904-01-01 00:26:05.864,200.0
1904-01-01 00:26:06.224,166.66666666666666
1904-01-01 00:26:06.704,125.0
1904-01-01 00:26:06.864,200.0
1904-01-01 00:26:06.944,200.0
1904-01-01 00:26:07.084,200.0
1904-01-01 00:26:07.264,200.0
1904-01-01 00:26:07.644,157.89473684210526
1904-01-01 00:26:07.804,200.0
1904-01-01 00:26:08.024,200.0
1904-01-01 00:26:08.144,200.0
1904-01-01 00:26:08.344,200.0
1904-01-01 00:26:08.884,111.11111111111111
1904-01-01 00:26:09.044,200.0
1904-01-01 00:26:09.144,200.0
1904-01-01 00:26:09.284,200.0
1904-01-01 00:26:09.384,200.0
1904-01-01 00:26:09.704,187.5
1904-01-01 00:26:09.724,200.0
1904-01-01 00:26:09.984,200.0
1904-01-01 00:26:10.164,200.0
1904-01-01 00:26:10.324,200.0
1904-01-01 00:26:10.404,200.0
1904-01-01 00:26:10.544,200.0
1904-01-01 00:26:11.044,120.0
1904-01-01 00:26:11.064,200.0
1904-01-01 00:26:11.164,200.0
1904-01-01 00:26:11.424,200.0
1904-01-01 00:26:11.724,200.0
1904-01-01 00:26:12.224,120.0
1904-01-01 00:26:12.324,200.0
1904-01-01 00:26:12.424,200.0
1904-01-01 00:26:12.504,200.0
1904-01-01 00:26:12.644,200.0
1904-01-01 00:26:12.724,200.0
1904-01-01 00:26:12.804,200.0
1904-01-01 00:26:12.924,200.0
1904-01-01 00:26:13.104,200.0
1904-01-01 00:26:13.264,200.0
1904-01-01 00:26:13.604,176.47058823529412
1904-01-01 00:26:13.764,200.0
1904-01-01 00:26:13.784,200.0
1904-01-01 00:26:14.024,200.0
1904-01-01 00:26:14.124,200.0
1904-01-01 00:26:14.364,200.0
1904-01-01 00:26:14.464,200.0
1904-01-01 00:26:14.544,200.0
1904-01-01 00:26:14.684,200.0
1904-01-01 00:26:14.884,200.0
1904-01-01 00:26:14.964,200.0
1904-01-01 00:26:15.084,200.0
1904-01-01 00:26:15.184,200.0
1904-01-01 00:26:15.424,200.0
1904-01-01 00:26:15.744,187.5
1904-01-01 00:26:15.784,200.0
1904-01-01 00:26:15.944,200.0
1904-01-01 00:26:16.084,200.0
1904-01-01 00:26:16.364,200.0
1904-01-01 00:26:16.424,200.0
1904-01-01 00:26:16.704,200.0
1904-01-01 00:26:16.724,200.0
1904-01-01 00:26:17.104,157.89473684210526
1904-01-01 00:26:17.444,176.47058823529412
1904-01-01 00:26:17.464,200.0
1904-01-01 00:26:17.664,200.0
1904-01-01 00:26:17.724,200.0
1904-01-01 00:26:17.844,200.0
1904-01-01 00:26:17.944,200.0
1904-01-01 00:26:18.184,200.0
1904-01-01 00:26:18.764,103.44827586206897
1904-01-01 00:26:18.924,200.0
1904-01-01 00:26:19.884,200.0
1904-01-01 00:26:19.964,200.0
1904-01-01 00:26:20.084,200.0
1904-01-01 00:26:20.324,200.0
1904-01-01 00:26:20.564,200.0
1904-01-01 00:26:20.604,200.0
1904-01-01 00:26:21.004,150.0
1904-01-01 00:26:21.144,200.0
1904-01-01 00:26:21.244,200.0
1904-01-01 00:26:21.284,200.0
1904-01-01 00:26:21.384,200.0
1904-01-01 00:26:21.664,200.0
1904-01-01 00:26:21.684,200.0
1904-01-01 00:26:21.784,200.0
1904-01-01 00:26:21.924,200.0
1904-01-01 00:26:22.344,142.85714285714286
1904-01-01 00:26:23.524,200.0
1904-01-01 00:26:23.704,200.0
1904-01-01 00:26:24.604,200.0
1904-01-01 00:26:24.784,200.0
1904-01-01 00:26:25.104,187.5
1904-01-01 00:26:25.524,142.85714285714286
1904-01-01 00:26:25.724,200.0
1904-01-01 00:26:25.864,200.0
1904-01-01 00:26:25.964,200.0
1904-01-01 00:26:26.844,200.0
1904-01-01 00:26:26.984,200.0
1904-01-01 00:26:27.064,200.0
1904-01-01 00:26:27.344,200.0
1904-01-01 00:26:27.364,200.0
1904-01-01 00:26:27.584,200.0
1904-01-01 00:26:27.784,200.0
1904-01-01 00:26:27.904,200.0
1904-01-01 00:26:27.964,200.0
1904-01-01 00:26:28.104,200.0
1904-01-01 00:26:28.244,200.0
1904-01-01 00:26:28.364,200.0
1904-01-01 00:26:28.704,176.47058823529412
1904-01-01 00:26:28.844,200.0
1904-01-01 00:26:28.904,200.0
1904-01-01 00:26:29.044,200.0
1904-01-01 00:26:29.544,120.0
1904-01-01 00:26:29.564,200.0
1904-01-01 00:26:30.044,125.0
1904-01-01 00:26:30.184,200.0
1904-01-01 00:26:30.264,200.0
1904-01-01 00:26:30.344,200.0
1904-01-01 00:26:30.504,200.0
1904-01-01 00:26:30.964,130.43478260869566
1904-01-01 00:26:30.984,200.0
1904-01-01 00:26:31.044,200.0
1904-01-01 00:26:31.164,200.0
1904-01-01 00:26:31.304,200.0
1904-01-01 00:26:31.544,200.0
1904-01-01 00:26:31.664,200.0
1904-01-01 00:26:31.904,200.0
1904-01-01 00:26:32.344,136.36363636363637
1904-01-01 00:26:33.324,200.0
1904-01-01 00:26:33.344,200.0
1904-01-01 00:26:33.684,176.47058823529412
1904-01-01 00:26:33.704,200.0
1904-01-01 00:26:34.284,103.44827586206897
1904-01-01 00:26:34.364,200.0
1904-01-01 00:26:34.604,200.0
1904-01-01 00:26:34.664,200.0
1904-01-01 00:26:34.844,200.0
1904-01-01 00:26:34.904,200.0
1904-01-01 00:26:35.064,200.0
1904-01-01 00:26:35.384,187.5
1904-01-01 00:26:35.744,166.66666666666666
1904-01-01 00:26:35.764,200.0
1904-01-01 00:26:35.884,200.0
1904-01-01 00:26:35.944,200.0
1904-01-01 00:26:36.024,200.0
1904-01-01 00:26:36.464,136.36363636363637
1904-01-01 00:26:36.544,200.0
1904-01-01 00:26:36.764,200.0
1904-01-01 00:26:37.144,157.89473684210526
1904-01-01 00:26:37.164,200.0
1904-01-01 00:26:37.744,103.44827586206897
1904-01-01 00:26:37.764,200.0
1904-01-01 00:26:37.844,200.0
1904-01-01 00:26:37.884,200.0
1904-01-01 00:26:38.124,200.0
1904-01-01 00:26:38.144,200.0
1904-01-01 00:26:38.504,166.66666666666666
1904-01-01 00:26:38.624,200.0
1904-01-01 00:26:38.864,200.0
1904-01-01 00:26:38.984,200.0
1904-01-01 00:26:39.324,176.47058823529412
1904-01-01 00:26:40.384,176.47058823529412
1904-01-01 00:26:40.464,200.0
1904-01-01 00:26:40.564,200.0
1904-01-01 00:26:40.604,200.0
1904-01-01 00:26:40.744,200.0
1904-01-01 00:26:40.984,200.0
1904-01-01 00:26:41.104,200.0
1904-01-01 00:26:41.404,200.0
1904-01-01 00:26:41.424,200.0
1904-01-01 00:26:41.544,200.0
1904-01-01 00:26:41.684,200.0
1904-01-01 00:26:41.944,200.0
1904-01-01 00:26:42.084,200.0
1904-01-01 00:26:42.104,200.0
1904-01-01 00:26:42.304,200.0
1904-01-01 00:26:42.604,200.0
1904-01-01 00:26:42.744,200.0
1904-01-01 00:26:43.124,157.89473684210526
1904-01-01 00:26:43.224,200.0
1904-01-01 00:26:43.384,200.0
1904-01-01 00:26:43.864,125.0
1904-01-01 00:26:44.024,200.0
1904-01-01 00:26:44.284,200.0
1904-01-01 00:26:44.384,200.0
1904-01-01 00:26:44.664,200.0
1904-01-01 00:26:44.684,200.0
1904-01-01 00:26:45.044,166.66666666666666
1904-01-01 00:26:45.344,200.0
1904-01-01 00:26:45.384,200.0
1904-01-01 00:26:45.464,200.0
1904-01-01 00:26:45.584,200.0
1904-01-01 00:26:46.044,130.43478260869566
1904-01-01 00:26:46.484,136.36363636363637
1904-01-01 00:26:46.564,200.0
1904-01-01 00:26:46.744,200.0
1904-01-01 00:26:46.764,200.0
1904-01-01 00:26:47.744,200.0
1904-01-01 00:26:47.884,200.0
1904-01-01 00:26:47.944,200.0
1904-01-01 00:26:48.124,200.0
1904-01-01 00:26:48.244,200.0
1904-01-01 00:26:48.284,200.0
1904-01-01 00:26:48.704,142.85714285714286
1904-01-01 00:26:48.864,200.0
1904-01-01 00:26:49.044,200.0
1904-01-01 00:26:49.264,200.0
1904-01-01 00:26:49.504,200.0
1904-01-01 00:26:49.624,200.0
1904-01-01 00:26:49.784,200.0
1904-01-01 00:26:50.004,200.0
1904-01-01 00:26:50.124,200.0
1904-01-01 00:26:50.384,200.0
1904-01-01 00:26:50.444,200.0
1904-01-01 00:26:50.544,200.0
1904-01-01 00:26:50.784,200.0
1904-01-01 00:26:50.964,200.0
1904-01-01 00:26:51.104,200.0
1904-01-01 00:26:51.204,200.0
1904-01-01 00:26:51.384,200.0
1904-01-01 00:26:51.464,200.0
1904-01-01 00:26:51.984,115.38461538461539
1904-01-01 00:26:52.184,200.0
1904-01-01 00:26:52.324,200.0
1904-01-01 00:26:52.384,200.0
1904-01-01 00:26:52.704,187.5
1904-01-01 00:26:53.104,150.0
1904-01-01 00:26:53.404,200.0
1904-01-01 00:26:53.504,200.0
1904-01-01 00:26:53.624,200.0
1904-01-01 00:26:54.064,136.36363636363637
1904-01-01 00:26:54.084,200.0
1904-01-01 00:26:54.244,200.0
1904-01-01 00:26:54.624,157.89473684210526
1904-01-01 00:26:54.764,200.0
1904-01-01 00:26:54.784,200.0
1904-01-01 00:26:54.844,200.0
1904-01-01 00:26:55.304,130.43478260869566
1904-01-01 00:26:55.324,200.0
1904-01-01 00:26:55.484,200.0
1904-01-01 00:26:55.644,200.0
1904-01-01 00:26:55.704,200.0
1904-01-01 00:26:56.184,125.0
1904-01-01 00:26:56.404,200.0
1904-01-01 00:26:56.424,200.0
1904-01-01 00:26:56.484,200.0
1904-01-01 00:26:56.884,150.0
1904-01-01 00:26:56.904,200.0
1904-01-01 00:26:57.504,100.0
1904-01-01 00:26:57.644,200.0
1904-01-01 00:26:58.224,103.44827586206897
1904-01-01 00:26:58.244,200.0
1904-01-01 00:26:58.384,200.0
1904-01-01 00:26:58.624,200.0
1904-01-01 00:26:58.804,200.0
1904-01-01 00:26:59.004,200.0
1904-01-01 00:26:59.124,200.0
1904-01-01 00:26:59.344,200.0
1904-01-01 00:26:59.844,120.0
1904-01-01 00:26:59.864,200.0
1904-01-01 00:27:00.064,200.0
1904-01-01 00:27:00.144,200.0
1904-01-01 00:27:00.564,142.85714285714286
1904-01-01 00:27:00.584,200.0
1904-01-01 00:27:00.784,200.0
1904-01-01 00:27:01.144,166.66666666666666
1904-01-01 00:27:01.284,200.0
1904-01-01 00:27:02.444,176.47058823529412
1904-01-01 00:27:02.684,200.0
1904-01-01 00:27:02.984,200.0
1904-01-01 00:27:03.004,200.0
1904-01-01 00:27:03.064,200.0
1904-01-01 00:27:03.184,200.0
1904-01-01 00:27:03.324,200.0
1904-01-01 00:27:03.364,200.0
1904-01-01 00:27:03.764,150.0
1904-01-01 00:27:04.084,187.5
1904-01-01 00:27:04.264,200.0
1904-01-01 00:27:04.464,200.0
1904-01-01 00:27:04.784,187.5
1904-01-01 00:27:05.204,142.85714285714286
1904-01-01 00:27:05.484,200.0
1904-01-01 00:27:05.544,200.0
1904-01-01 00:27:05.764,200.0
1904-01-01 00:27:05.844,200.0
1904-01-01 00:27:06.184,176.47058823529412
1904-01-01 00:27:06.204,200.0
1904-01-01 00:27:06.304,200.0
1904-01-01 00:27:06.364,200.0
1904-01-01 00:27:06.444,200.0
1904-01-01 00:27:06.624,200.0
1904-01-01 00:27:06.784,200.0
1904-01-01 00:27:06.924,200.0
1904-01-01 00:27:07.384,130.43478260869566
1904-01-01 00:27:07.644,200.0
1904-01-01 00:27:07.664,200.0
1904-01-01 00:27:07.724,200.0
1904-01-01 00:27:07.944,200.0
1904-01-01 00:27:08.004,200.0
1904-01-01 00:27:08.064,200.0
1904-01-01 00:27:08.384,187.5
1904-01-01 00:27:08.464,200.0
1904-01-01 00:27:08.644,200.0
1904-01-01 00:27:09.124,125.0
1904-01-01 00:27:09.224,200.0
1904-01-01 00:27:09.564,176.47058823529412
1904-01-01 00:27:09.744,200.0
1904-01-01 00:27:09.844,200.0
1904-01-01 00:27:09.924,200.0
1904-01-01 00:27:10.684,200.0
1904-01-01 00:27:10.864,200.0
1904-01-01 00:27:11.264,150.0
1904-01-01 00:27:11.484,200.0
1904-01-01 00:27:11.824,176.47058823529412
1904-01-01 00:27:11.964,200.0
1904-01-01 00:27:12.064,200.0
1904-01-01 00:27:12.084,200.0
1904-01-01 00:27:12.224,200.0
1904-01-01 00:27:12.644,142.85714285714286
1904-01-01 00:27:12.664,200.0
1904-01-01 00:27:12.864,200.0
1904-01-01 00:27:13.004,200.0
1904-01-01 00:27:13.044,200.0
1904-01-01 00:27:13.204,200.0
1904-01-01 00:27:13.344,200.0
1904-01-01 00:27:13.624,200.0
1904-01-01 00:27:13.784,200.0
1904-01-01 00:27:13.964,200.0
1904-01-01 00:27:14.024,200.0
1904-01-01 00:27:14.164,200.0
1904-01-01 00:27:14.304,200.0
1904-01-01 00:27:14.524,200.0
1904-01-01 00:27:14.704,200.0
1904-01-01 00:27:15.044,176.47058823529412
1904-01-01 00:27:15.064,200.0
1904-01-01 00:27:15.244,200.0
1904-01-01 00:27:15.384,200.0
1904-01-01 00:27:15.804,142.85714285714286
1904-01-01 00:27:15.844,200.0
1904-01-01 00:27:15.944,200.0
1904-01-01 00:27:16.084,200.0
1904-01-01 00:27:16.144,200.0
1904-01-01 00:27:16.324,200.0
1904-01-01 00:27:16.604,200.0
1904-01-01 00:27:16.784,200.0
1904-01-01 00:27:16.804,200.0
1904-01-01 00:27:17.044,200.0
1904-01-01 00:27:17.224,200.0
1904-01-01 00:27:17.404,200.0
1904-01-01 00:27:17.504,200.0
1904-01-01 00:27:17.544,200.0
1904-01-01 00:27:17.844,200.0
1904-01-01 00:27:18.224,157.89473684210526
1904-01-01 00:27:18.244,200.0
1904-01-01 00:27:18.384,200.0
1904-01-01 00:27:18.784,150.0
1904-01-01 00:27:18.864,200.0
1904-01-01 00:27:18.944,200.0
1904-01-01 00:27:19.024,200.0
1904-01-01 00:27:19.084,200.0
1904-01-01 00:27:19.164,200.0
1904-01-01 00:27:19.384,200.0
1904-01-01 00:27:19.544,200.0
1904-01-01 00:27:19.564,200.0
1904-01-01 00:27:19.684,200.0
1904-01-01 00:27:19.944,200.0
1904-01-01 00:27:20.124,200.0
1904-01-01 00:27:20.384,200.0
1904-01-01 00:27:20.464,200.0
1904-01-01 00:27:20.624,200.0
1904-01-01 00:27:20.644,200.0
1904-01-01 00:27:20.744,200.0
1904-01-01 00:27:20.944,200.0
1904-01-01 00:27:21.024,200.0
1904-01-01 00:27:22.164,150.0
1904-01-01 00:27:22.424,200.0
1904-01-01 00:27:22.444,200.0
1904-01-01 00:27:22.504,200.0
1904-01-01 00:27:22.644,200.0
1904-01-01 00:27:22.784,200.0
1904-01-01 00:27:22.824,200.0
1904-01-01 00:27:22.964,200.0
1904-01-01 00:27:23.124,200.0
1904-01-01 00:27:23.184,200.0
1904-01-01 00:27:23.344,200.0
1904-01-01 00:27:23.724,157.89473684210526
1904-01-01 00:27:23.784,200.0
1904-01-01 00:27:23.924,200.0
1904-01-01 00:27:24.044,200.0
1904-01-01 00:27:24.144,200.0
1904-01-01 00:27:24.284,200.0
1904-01-01 00:27:24.444,200.0
1904-01-01 00:27:24.824,157.89473684210526
1904-01-01 00:27:24.964,200.0
1904-01-01 00:27:25.004,200.0
1904-01-01 00:27:25.104,200.0
1904-01-01 00:27:25.164,200.0
1904-01-01 00:27:25.544,157.89473684210526
1904-01-01 00:27:25.764,200.0
1904-01-01 00:27:25.784,200.0
1904-01-01 00:27:25.924,200.0
1904-01-01 00:27:26.004,200.0
1904-01-01 00:27:26.244,200.0
1904-01-01 00:27:26.284,200.0
1904-01-01 00:27:26.444,200.0
1904-01-01 00:27:26.484,200.0
1904-01-01 00:27:26.564,200.0
1904-01-01 00:27:26.664,200.0
1904-01-01 00:27:26.704,200.0
1904-01-01 00:27:27.024,187.5
1904-01-01 00:27:27.124,200.0
1904-01-01 00:27:27.204,200.0
1904-01-01 00:27:27.344,200.0
1904-01-01 00:27:27.824,125.0
1904-01-01 00:27:28.324,120.0
1904-01-01 00:27:28.424,200.0
1904-01-01 00:27:28.524,200.0
1904-01-01 00:27:29.084,107.14285714285714
1904-01-01 00:27:29.224,200.0
1904-01-01 00:27:29.424,200.0
1904-01-01 00:27:29.784,166.66666666666666
1904-01-01 00:27:29.804,200.0
1904-01-01 00:27:29.924,200.0
1904-01-01 00:27:29.984,200.0
1904-01-01 00:27:30.304,187.5
1904-01-01 00:27:30.624,187.5
1904-01-01 00:27:30.644,200.0
1904-01-01 00:27:30.724,200.0
1904-01-01 00:27:30.904,200.0
1904-01-01 00:27:31.104,200.0
1904-01-01 00:27:31.324,200.0
1904-01-01 00:27:31.424,200.0
1904-01-01 00:27:31.724,200.0
1904-01-01 00:27:31.904,200.0
1904-01-01 00:27:32.024,200.0
1904-01-01 00:27:32.204,200.0
1904-01-01 00:27:32.524,187.5
1904-01-01 00:27:32.704,200.0
1904-01-01 00:27:32.724,200.0
1904-01-01 00:27:32.984,200.0
1904-01-01 00:27:33.084,200.0
1904-01-01 00:27:33.144,200.0
1904-01-01 00:27:33.264,200.0
1904-01-01 00:27:33.384,200.0
1904-01-01 00:27:33.604,200.0
1904-01-01 00:27:33.764,200.0
1904-01-01 00:27:33.784,200.0
1904-01-01 00:27:33.904,200.0
1904-01-01 00:27:34.064,200.0
1904-01-01 00:27:34.164,200.0
1904-01-01 00:27:34.224,200.0
1904-01-01 00:27:34.724,120.0
1904-01-01 00:27:34.744,200.0
1904-01-01 00:27:34.844,200.0
1904-01-01 00:27:35.024,200.0
1904-01-01 00:27:35.184,200.0
1904-01-01 00:27:35.404,200.0
1904-01-01 00:27:35.424,200.0
1904-01-01 00:27:35.524,200.0
1904-01-01 00:27:35.624,200.0
1904-01-01 00:27:35.884,200.0
1904-01-01 00:27:36.124,200.0
1904-01-01 00:27:36.544,142.85714285714286
1904-01-01 00:27:36.724,200.0
1904-01-01 00:27:36.744,200.0
1904-01-01 00:27:36.884,200.0
1904-01-01 00:27:36.964,200.0
1904-01-01 00:27:37.184,200.0
1904-01-01 00:27:37.444,200.0
1904-01-01 00:27:37.604,200.0
1904-01-01 00:27:38.124,115.38461538461539
1904-01-01 00:27:38.144,200.0
1904-01-01 00:27:38.264,200.0
1904-01-01 00:27:38.644,157.89473684210526
1904-01-01 00:27:38.684,200.0
1904-01-01 00:27:38.844,200.0
1904-01-01 00:27:39.784,200.0
1904-01-01 00:27:40.284,120.0
1904-01-01 00:27:40.304,200.0
1904-01-01 00:27:40.844,111.11111111111111
1904-01-01 00:27:41.004,200.0
1904-01-01 00:27:41.024,200.0
1904-01-01 00:27:41.944,200.0
1904-01-01 00:27:42.344,150.0
1904-01-01 00:27:42.364,200.0
1904-01-01 00:27:43.084,200.0
1904-01-01 00:27:43.204,200.0
1904-01-01 00:27:43.264,200.0
1904-01-01 00:27:43.504,200.0
1904-01-01 00:27:43.604,200.0
1904-01-01 00:27:43.664,200.0
1904-01-01 00:27:43.744,200.0
1904-01-01 00:27:44.084,176.47058823529412
1904-01-01 00:27:44.284,200.0
1904-01-01 00:27:44.304,200.0
1904-01-01 00:27:44.484,200.0
1904-01-01 00:27:44.704,200.0
1904-01-01 00:27:44.964,200.0
1904-01-01 00:27:45.024,200.0
1904-01-01 00:27:45.604,103.44827586206897
1904-01-01 00:27:45.624,200.0
1904-01-01 00:27:46.004,157.89473684210526
1904-01-01 00:27:46.284,200.0
1904-01-01 00:27:46.304,200.0
1904-01-01 00:27:46.384,200.0
1904-01-01 00:27:46.504,200.0
1904-01-01 00:27:46.544,200.0
1904-01-01 00:27:46.804,200.0
1904-01-01 00:27:46.964,200.0
1904-01-01 00:27:46.984,200.0
1904-01-01 00:27:47.064,200.0
1904-01-01 00:27:47.244,200.0
1904-01-01 00:27:47.664,142.85714285714286
1904-01-01 00:27:48.084,142.85714285714286
1904-01-01 00:27:48.384,200.0
1904-01-01 00:27:48.564,200.0
1904-01-01 00:27:48.904,176.47058823529412
1904-01-01 00:27:49.064,200.0
1904-01-01 00:27:49.124,200.0
1904-01-01 00:27:49.304,200.0
1904-01-01 00:27:49.444,200.0
1904-01-01 00:27:49.684,200.0
1904-01-01 00:27:49.764,200.0
1904-01-01 00:27:52.364,130.43478260869566
1904-01-01 00:27:52.444,200.0
1904-01-01 00:27:52.604,200.0
1904-01-01 00:27:52.924,187.5
1904-01-01 00:27:53.304,157.89473684210526
1904-01-01 00:27:53.324,200.0
1904-01-01 00:27:53.844,115.38461538461539
1904-01-01 00:27:53.984,200.0
1904-01-01 00:27:54.004,200.0
1904-01-01 00:27:55.064,200.0
1904-01-01 00:27:55.224,200.0
1904-01-01 00:27:55.324,200.0
1904-01-01 00:27:55.384,200.0
1904-01-01 00:27:55.484,200.0
1904-01-01 00:27:56.064,103.44827586206897
1904-01-01 00:27:56.084,200.0
1904-01-01 00:27:56.564,125.0
1904-01-01 00:27:56.584,200.0
1904-01-01 00:27:56.744,200.0
1904-01-01 00:27:56.984,200.0
1904-01-01 00:27:57.304,187.5
1904-01-01 00:27:57.424,200.0
1904-01-01 00:27:57.464,200.0
1904-01-01 00:27:58.444,200.0
1904-01-01 00:27:58.544,200.0
1904-01-01 00:27:58.784,200.0
1904-01-01 00:27:58.884,200.0
1904-01-01 00:27:59.004,200.0
1904-01-01 00:27:59.344,176.47058823529412
1904-01-01 00:27:59.524,200.0
1904-01-01 00:27:59.664,200.0
1904-01-01 00:27:59.784,200.0
1904-01-01 00:27:59.904,200.0
1904-01-01 00:27:59.964,200.0
1904-01-01 00:28:00.164,200.0
1904-01-01 00:28:00.404,200.0
1904-01-01 00:28:00.604,200.0
1904-01-01 00:28:00.744,200.0
1904-01-01 00:28:00.884,200.0
1904-01-01 00:28:01.004,200.0
1904-01-01 00:28:01.104,200.0
1904-01-01 00:28:01.584,125.0
1904-01-01 00:28:01.904,187.5
1904-01-01 00:28:02.024,200.0
1904-01-01 00:28:02.284,200.0
1904-01-01 00:28:03.584,115.38461538461539
1904-01-01 00:28:03.744,200.0
1904-01-01 00:28:03.984,200.0
1904-01-01 00:28:04.084,200.0
1904-01-01 00:28:04.284,200.0
1904-01-01 00:28:04.444,200.0
1904-01-01 00:28:04.464,200.0
1904-01-01 00:28:04.664,200.0
1904-01-01 00:28:04.784,200.0
1904-01-01 00:28:04.904,200.0
1904-01-01 00:28:04.984,200.0
1904-01-01 00:28:05.184,200.0
1904-01-01 00:28:05.604,142.85714285714286
1904-01-01 00:28:05.924,187.5
1904-01-01 00:28:07.044,200.0
1904-01-01 00:28:07.364,187.5
1904-01-01 00:28:07.604,200.0
1904-01-01 00:28:07.764,200.0
1904-01-01 00:28:08.084,187.5
1904-01-01 00:29:17.764,200.0
1904-01-01 00:29:18.284,115.38461538461539
1904-01-01 00:29:19.904,200.0
1904-01-01 00:29:20.124,200.0
1904-01-01 00:29:20.144,200.0
1904-01-01 00:29:20.304,200.0
1904-01-01 00:29:20.604,200.0
1904-01-01 00:29:20.624,200.0
1904-01-01 00:29:20.684,200.0
1904-01-01 00:29:21.024,176.47058823529412
1904-01-01 00:29:21.264,200.0
1904-01-01 00:29:21.384,200.0
1904-01-01 00:29:22.584,200.0
1904-01-01 00:29:22.724,200.0
1904-01-01 00:29:22.884,200.0
1904-01-01 00:29:22.904,200.0
1904-01-01 00:29:23.744,200.0
1904-01-01 00:29:24.504,200.0
1904-01-01 00:29:24.744,200.0
1904-01-01 00:29:24.804,200.0
1904-01-01 00:29:25.164,166.66666666666666
1904-01-01 00:29:25.184,200.0
1904-01-01 00:29:27.504,200.0
1904-01-01 00:29:27.684,200.0
1904-01-01 00:29:27.804,200.0
1904-01-01 00:29:28.104,200.0
1904-01-01 00:29:28.204,200.0
1904-01-01 00:29:28.264,200.0
1904-01-01 00:29:28.704,136.36363636363637
1904-01-01 00:29:28.804,200.0
1904-01-01 00:29:29.004,200.0
1904-01-01 00:29:29.364,166.66666666666666
1904-01-01 00:29:29.584,200.0
1904-01-01 00:29:29.724,200.0
1904-01-01 00:29:29.824,200.0
1904-01-01 00:29:29.944,200.0
1904-01-01 00:29:30.024,200.0
1904-01-01 00:29:30.284,200.0
1904-01-01 00:29:30.444,200.0
1904-01-01 00:29:30.464,200.0
1904-01-01 00:29:30.584,200.0
1904-01-01 00:29:31.044,130.43478260869566
1904-01-01 00:29:31.184,200.0
1904-01-01 00:29:31.204,200.0
1904-01-01 00:29:31.544,176.47058823529412
1904-01-01 00:29:31.964,142.85714285714286
1904-01-01 00:29:31.984,200.0
1904-01-01 00:30:33.864,103.44827586206897
1904-01-01 00:30:34.064,200.0
1904-01-01 00:30:34.144,200.0
1904-01-01 00:30:34.284,200.0
1904-01-01 00:30:34.484,200.0
1904-01-01 00:30:34.624,200.0
1904-01-01 00:30:34.784,200.0
1904-01-01 00:30:35.144,166.66666666666666
1904-01-01 00:30:35.484,176.47058823529412
1904-01-01 00:30:35.504,200.0
1904-01-01 00:30:35.644,200.0
1904-01-01 00:30:35.704,200.0
1904-01-01 00:30:35.824,200.0
1904-01-01 00:30:36.044,200.0
1904-01-01 00:30:36.224,200.0
1904-01-01 00:30:36.244,200.0
1904-01-01 00:30:36.524,200.0
1904-01-01 00:30:36.684,200.0
1904-01-01 00:30:36.844,200.0
1904-01-01 00:30:37.004,200.0
1904-01-01 00:30:37.044,200.0
1904-01-01 00:30:37.104,200.0
1904-01-01 00:30:37.224,200.0
1904-01-01 00:30:37.764,111.11111111111111
1904-01-01 00:30:37.784,200.0
1904-01-01 00:30:37.824,200.0
1904-01-01 00:30:38.064,200.0
1904-01-01 00:30:38.284,200.0
1904-01-01 00:30:38.584,200.0
1904-01-01 00:30:38.604,200.0
1904-01-01 00:30:38.844,200.0
1904-01-01 00:30:39.004,200.0
1904-01-01 00:30:39.224,200.0
1904-01-01 00:30:39.404,200.0
1904-01-01 00:30:39.524,200.0
1904-01-01 00:30:39.784,200.0
1904-01-01 00:30:39.904,200.0
1904-01-01 00:30:40.224,187.5
1904-01-01 00:30:40.244,200.0
1904-01-01 00:30:40.804,107.14285714285714
1904-01-01 00:30:40.964,200.0
1904-01-01 00:30:41.044,200.0
1904-01-01 00:30:41.644,100.0
1904-01-01 00:30:41.844,200.0
1904-01-01 00:30:41.864,200.0
1904-01-01 00:30:42.024,200.0
1904-01-01 00:30:43.244,150.0
1904-01-01 00:30:43.264,200.0
1904-01-01 00:30:43.444,200.0
1904-01-01 00:30:43.684,200.0
1904-01-01 00:30:43.844,200.0
1904-01-01 00:30:44.004,200.0
1904-01-01 00:30:44.224,200.0
1904-01-01 00:30:44.424,200.0
1904-01-01 00:30:44.504,200.0
1904-01-01 00:30:44.664,200.0
1904-01-01 00:30:45.004,176.47058823529412
1904-01-01 00:30:45.084,200.0
1904-01-01 00:30:45.284,200.0
1904-01-01 00:30:45.504,200.0
1904-01-01 00:30:45.764,200.0
1904-01-01 00:30:46.004,200.0
1904-01-01 00:30:46.024,200.0
1904-01-01 00:30:46.204,200.0
1904-01-01 00:30:46.404,200.0
1904-01-01 00:30:46.464,200.0
1904-01-01 00:30:46.564,200.0
1904-01-01 00:30:46.824,200.0
1904-01-01 00:30:47.244,142.85714285714286
1904-01-01 00:30:47.344,200.0
1904-01-01 00:30:47.484,200.0
1904-01-01 00:30:47.544,200.0
1904-01-01 00:30:47.604,200.0
1904-01-01 00:30:48.104,120.0
1904-01-01 00:30:48.124,200.0
1904-01-01 00:30:48.224,200.0
1904-01-01 00:30:48.444,200.0
1904-01-01 00:30:48.604,200.0
1904-01-01 00:30:48.664,200.0
1904-01-01 00:30:48.884,200.0
1904-01-01 00:30:48.904,200.0
1904-01-01 00:30:49.124,200.0
1904-01-01 00:30:49.264,200.0
1904-01-01 00:30:49.424,200.0
1904-01-01 00:30:49.664,200.0
1904-01-01 00:30:49.684,200.0
1904-01-01 00:30:49.764,200.0
1904-01-01 00:30:49.844,200.0
1904-01-01 00:30:49.884,200.0
1904-01-01 00:30:50.304,142.85714285714286
1904-01-01 00:30:50.444,200.0
1904-01-01 00:30:50.644,200.0
1904-01-01 00:30:50.684,200.0
1904-01-01 00:30:50.844,200.0
1904-01-01 00:30:50.944,200.0
1904-01-01 00:30:51.084,200.0
1904-01-01 00:30:51.224,200.0
1904-01-01 00:30:51.484,200.0
1904-01-01 00:30:52.004,115.38461538461539
1904-01-01 00:30:52.024,200.0
1904-01-01 00:30:52.184,200.0
1904-01-01 00:30:52.304,200.0
1904-01-01 00:30:52.544,200.0
1904-01-01 00:30:52.604,200.0
1904-01-01 00:30:52.784,200.0
1904-01-01 00:30:52.844,200.0
1904-01-01 00:30:53.124,200.0
1904-01-01 00:30:53.144,200.0
1904-01-01 00:30:53.284,200.0
1904-01-01 00:30:53.564,200.0
1904-01-01 00:30:53.624,200.0
1904-01-01 00:30:53.764,200.0
1904-01-01 00:30:53.924,200.0
1904-01-01 00:30:54.084,200.0
1904-01-01 00:30:54.324,200.0
1904-01-01 00:30:54.344,200.0
1904-01-01 00:30:54.484,200.0
1904-01-01 00:30:54.584,200.0
1904-01-01 00:30:54.704,200.0
1904-01-01 00:30:54.844,200.0
1904-01-01 00:30:55.004,200.0
1904-01-01 00:30:55.084,200.0
1904-01-01 00:30:55.264,200.0
1904-01-01 00:30:55.464,200.0
1904-01-01 00:30:55.824,166.66666666666666
1904-01-01 00:30:55.844,200.0
1904-01-01 00:30:55.944,200.0
1904-01-01 00:30:56.204,200.0
1904-01-01 00:30:56.364,200.0
1904-01-01 00:30:56.404,200.0
1904-01-01 00:30:56.544,200.0
1904-01-01 00:30:57.624,200.0
1904-01-01 00:30:57.644,200.0
1904-01-01 00:30:58.044,150.0
1904-01-01 00:30:58.064,200.0
1904-01-01 00:30:58.144,200.0
1904-01-01 00:30:58.264,200.0
1904-01-01 00:30:58.564,200.0
1904-01-01 00:30:58.664,200.0
1904-01-01 00:30:58.784,200.0
1904-01-01 00:30:59.104,187.5
1904-01-01 00:30:59.184,200.0
1904-01-01 00:30:59.424,200.0
1904-01-01 00:30:59.524,200.0
1904-01-01 00:30:59.744,200.0
1904-01-01 00:30:59.864,200.0
1904-01-01 00:31:00.164,200.0
1904-01-01 00:31:00.264,200.0
1904-01-01 00:31:00.504,200.0
1904-01-01 00:31:00.784,200.0
1904-01-01 00:31:00.984,200.0
1904-01-01 00:31:01.004,200.0
1904-01-01 00:31:01.064,200.0
1904-01-01 00:31:01.464,150.0
1904-01-01 00:31:01.484,200.0
1904-01-01 00:31:01.704,200.0
1904-01-01 00:31:01.724,200.0
1904-01-01 00:31:01.824,200.0
1904-01-01 00:31:01.944,200.0
1904-01-01 00:31:02.044,200.0
1904-01-01 00:31:02.424,157.89473684210526
1904-01-01 00:31:02.444,200.0
1904-01-01 00:31:02.524,200.0
1904-01-01 00:31:02.584,200.0
1904-01-01 00:31:02.684,200.0
1904-01-01 00:31:02.784,200.0
1904-01-01 00:31:02.984,200.0
1904-01-01 00:31:03.164,200.0
1904-01-01 00:31:03.284,200.0
1904-01-01 00:31:03.504,200.0
1904-01-01 00:31:03.864,166.66666666666666
1904-01-01 00:31:03.884,200.0
1904-01-01 00:31:04.804,200.0
1904-01-01 00:31:04.844,200.0
1904-01-01 00:31:04.984,200.0
1904-01-01 00:31:05.164,200.0
1904-01-01 00:31:05.284,200.0
1904-01-01 00:31:05.664,157.89473684210526
1904-01-01 00:31:05.924,200.0
1904-01-01 00:31:06.004,200.0
1904-01-01 00:31:06.044,200.0
1904-01-01 00:31:06.224,200.0
1904-01-01 00:31:06.684,130.43478260869566
1904-01-01 00:31:06.704,200.0
1904-01-01 00:31:06.964,200.0
1904-01-01 00:31:07.004,200.0
1904-01-01 00:31:07.244,200.0
1904-01-01 00:31:07.404,200.0
1904-01-01 00:31:07.684,200.0
1904-01-01 00:31:07.944,200.0
1904-01-01 00:31:08.084,200.0
1904-01-01 00:31:08.344,200.0
1904-01-01 00:31:08.524,200.0
1904-01-01 00:31:08.604,200.0
1904-01-01 00:31:08.644,200.0
1904-01-01 00:31:08.744,200.0
1904-01-01 00:31:09.144,150.0
1904-01-01 00:31:09.404,200.0
1904-01-01 00:31:09.424,200.0
1904-01-01 00:31:09.524,200.0
1904-01-01 00:31:09.824,200.0
1904-01-01 00:31:09.944,200.0
1904-01-01 00:31:10.084,200.0
1904-01-01 00:31:10.144,200.0
1904-01-01 00:31:10.264,200.0
1904-01-01 00:31:10.604,176.47058823529412
1904-01-01 00:31:10.624,200.0
1904-01-01 00:31:10.764,200.0
1904-01-01 00:31:10.984,200.0
1904-01-01 00:31:11.224,200.0
1904-01-01 00:31:11.444,200.0
1904-01-01 00:31:11.704,200.0
1904-01-01 00:31:12.124,142.85714285714286
1904-01-01 00:31:12.464,176.47058823529412
1904-01-01 00:31:12.544,200.0
1904-01-01 00:31:12.584,200.0
1904-01-01 00:31:12.804,200.0
1904-01-01 00:31:13.164,166.66666666666666
1904-01-01 00:31:13.544,157.89473684210526
1904-01-01 00:31:14.424,200.0
1904-01-01 00:31:14.664,200.0
1904-01-01 00:31:14.744,200.0
1904-01-01 00:31:14.884,200.0
1904-01-01 00:31:15.444,107.14285714285714
1904-01-01 00:31:15.584,200.0
1904-01-01 00:31:15.744,200.0
1904-01-01 00:31:15.964,200.0
1904-01-01 00:31:16.044,200.0
1904-01-01 00:31:16.184,200.0
1904-01-01 00:31:16.264,200.0
1904-01-01 00:31:16.784,115.38461538461539
1904-01-01 00:31:16.924,200.0
1904-01-01 00:31:16.964,200.0
1904-01-01 00:31:17.144,200.0
1904-01-01 00:31:17.604,130.43478260869566
1904-01-01 00:31:17.624,200.0
1904-01-01 00:31:18.144,115.38461538461539
1904-01-01 00:31:18.204,200.0
1904-01-01 00:31:18.264,200.0
1904-01-01 00:31:18.304,200.0
1904-01-01 00:31:18.364,200.0
1904-01-01 00:31:18.564,200.0
1904-01-01 00:31:18.824,200.0
1904-01-01 00:31:18.984,200.0
1904-01-01 00:31:19.044,200.0
1904-01-01 00:31:19.984,200.0
1904-01-01 00:31:20.144,200.0
1904-01-01 00:31:20.344,200.0
1904-01-01 00:31:20.424,200.0
1904-01-01 00:31:20.844,142.85714285714286
1904-01-01 00:31:21.024,200.0
1904-01-01 00:31:21.204,200.0
1904-01-01 00:31:21.244,200.0
1904-01-01 00:31:21.344,200.0
1904-01-01 00:31:21.724,157.89473684210526
1904-01-01 00:31:21.944,200.0
1904-01-01 00:31:22.284,176.47058823529412
1904-01-01 00:31:22.304,200.0
1904-01-01 00:31:22.344,200.0
1904-01-01 00:31:22.404,200.0
1904-01-01 00:31:22.604,200.0
1904-01-01 00:31:22.664,200.0
1904-01-01 00:31:23.064,150.0
1904-01-01 00:31:23.084,200.0
1904-01-01 00:31:23.444,166.66666666666666
1904-01-01 00:31:23.864,142.85714285714286
1904-01-01 00:31:24.444,103.44827586206897
1904-01-01 00:31:24.464,200.0
1904-01-01 00:31:25.364,200.0
1904-01-01 00:31:25.464,200.0
1904-01-01 00:31:25.624,200.0
1904-01-01 00:31:25.664,200.0
1904-01-01 00:31:25.804,200.0
1904-01-01 00:31:25.864,200.0
1904-01-01 00:31:26.024,200.0
1904-01-01 00:31:26.064,200.0
1904-01-01 00:31:26.464,150.0
1904-01-01 00:31:26.524,200.0
1904-01-01 00:31:26.704,200.0
1904-01-01 00:31:27.104,150.0
1904-01-01 00:31:27.124,200.0
1904-01-01 00:31:27.444,187.5
1904-01-01 00:31:27.784,176.47058823529412
1904-01-01 00:31:27.804,200.0
1904-01-01 00:31:28.204,150.0
1904-01-01 00:31:28.324,200.0
1904-01-01 00:31:28.484,200.0
1904-01-01 00:31:28.724,200.0
1904-01-01 00:31:29.064,176.47058823529412
1904-01-01 00:31:29.184,200.0
1904-01-01 00:31:29.284,200.0
1904-01-01 00:31:29.824,111.11111111111111
1904-01-01 00:31:29.844,200.0
1904-01-01 00:31:30.384,111.11111111111111
1904-01-01 00:31:30.524,200.0
1904-01-01 00:31:30.704,200.0
1904-01-01 00:31:30.864,200.0
1904-01-01 00:31:31.004,200.0
1904-01-01 00:31:31.204,200.0
1904-01-01 00:31:31.284,200.0
1904-01-01 00:31:31.464,200.0
1904-01-01 00:31:31.864,150.0
1904-01-01 00:31:31.884,200.0
1904-01-01 00:31:32.084,200.0
1904-01-01 00:31:32.124,200.0
1904-01-01 00:31:32.164,200.0
1904-01-01 00:31:32.204,200.0
1904-01-01 00:31:32.244,200.0
1904-01-01 00:31:32.404,200.0
1904-01-01 00:31:32.564,200.0
1904-01-01 00:31:33.044,125.0
1904-01-01 00:31:33.064,200.0
1904-01-01 00:31:33.224,200.0
1904-01-01 00:31:33.284,200.0
1904-01-01 00:31:33.864,103.44827586206897
1904-01-01 00:31:33.884,200.0
1904-01-01 00:31:34.344,130.43478260869566
1904-01-01 00:31:34.544,200.0
1904-01-01 00:31:34.684,200.0
1904-01-01 00:31:35.204,115.38461538461539
1904-01-01 00:31:35.224,200.0
1904-01-01 00:31:35.444,200.0
1904-01-01 00:31:35.664,200.0
1904-01-01 00:31:35.864,200.0
1904-01-01 00:31:35.884,200.0
1904-01-01 00:31:36.364,125.0
1904-01-01 00:31:36.544,200.0
1904-01-01 00:31:36.804,200.0
1904-01-01 00:31:36.884,200.0
1904-01-01 00:31:37.064,200.0
1904-01-01 00:31:37.084,200.0
1904-01-01 00:31:37.204,200.0
1904-01-01 00:31:37.384,200.0
1904-01-01 00:31:37.404,200.0
1904-01-01 00:31:37.644,200.0
1904-01-01 00:31:37.884,200.0
1904-01-01 00:31:38.624,200.0
1904-01-01 00:31:38.984,166.66666666666666
1904-01-01 00:31:39.164,200.0
1904-01-01 00:31:39.224,200.0
1904-01-01 00:31:39.304,200.0
1904-01-01 00:31:39.584,200.0
1904-01-01 00:31:39.904,187.5
1904-01-01 00:31:40.784,200.0
1904-01-01 00:31:40.964,200.0
1904-01-01 00:31:41.064,200.0
1904-01-01 00:31:41.264,200.0
1904-01-01 00:31:41.284,200.0
1904-01-01 00:31:41.524,200.0
1904-01-01 00:31:41.664,200.0
1904-01-01 00:31:41.804,200.0
1904-01-01 00:31:41.964,200.0
1904-01-01 00:31:42.224,200.0
1904-01-01 00:31:42.504,200.0
1904-01-01 00:31:42.684,200.0
1904-01-01 00:31:42.744,200.0
1904-01-01 00:31:42.824,200.0
1904-01-01 00:31:42.924,200.0
1904-01-01 00:31:43.344,142.85714285714286
1904-01-01 00:31:43.364,200.0
1904-01-01 00:31:43.844,125.0
1904-01-01 00:31:44.024,200.0
1904-01-01 00:31:44.504,125.0
1904-01-01 00:31:44.704,200.0
1904-01-01 00:31:45.144,136.36363636363637
1904-01-01 00:31:45.164,200.0
1904-01-01 00:31:45.284,200.0
1904-01-01 00:31:45.404,200.0
1904-01-01 00:31:45.464,200.0
1904-01-01 00:31:45.524,200.0
1904-01-01 00:31:45.624,200.0
1904-01-01 00:31:45.764,200.0
1904-01-01 00:31:46.064,200.0
1904-01-01 00:31:46.124,200.0
1904-01-01 00:31:46.544,142.85714285714286
1904-01-01 00:31:46.724,200.0
1904-01-01 00:31:46.744,200.0
1904-01-01 00:31:47.004,200.0
1904-01-01 00:31:47.164,200.0
1904-01-01 00:31:47.204,200.0
1904-01-01 00:31:47.404,200.0
1904-01-01 00:31:47.744,176.47058823529412
1904-01-01 00:31:47.964,200.0
1904-01-01 00:31:48.084,200.0
1904-01-01 00:31:48.324,200.0
1904-01-01 00:31:48.864,111.11111111111111
1904-01-01 00:31:49.424,107.14285714285714
1904-01-01 00:31:49.644,200.0
1904-01-01 00:31:50.724,200.0
1904-01-01 00:31:50.904,200.0
1904-01-01 00:31:51.084,200.0
1904-01-01 00:31:51.464,157.89473684210526
1904-01-01 00:31:51.484,200.0
1904-01-01 00:31:51.624,200.0
1904-01-01 00:31:51.744,200.0
1904-01-01 00:31:51.784,200.0
1904-01-01 00:31:52.164,157.89473684210526
1904-01-01 00:31:53.764,200.0
1904-01-01 00:31:53.924,200.0
1904-01-01 00:31:54.244,187.5
1904-01-01 00:31:55.004,200.0
1904-01-01 00:31:55.184,200.0
1904-01-01 00:31:55.604,142.85714285714286
1904-01-01 00:31:56.104,120.0
1904-01-01 00:31:56.304,200.0
1904-01-01 00:31:56.544,200.0
1904-01-01 00:31:56.864,187.5
1904-01-01 00:31:57.004,200.0
1904-01-01 00:31:57.064,200.0
1904-01-01 00:31:57.184,200.0
1904-01-01 00:31:57.424,200.0
1904-01-01 00:31:57.664,200.0
1904-01-01 00:31:57.684,200.0
1904-01-01 00:31:57.804,200.0
1904-01-01 00:31:57.824,200.0
1904-01-01 00:31:58.104,200.0
1904-01-01 00:31:58.244,200.0
1904-01-01 00:31:58.364,200.0
1904-01-01 00:31:58.504,200.0
1904-01-01 00:31:59.044,111.11111111111111
1904-01-01 00:31:59.164,200.0
1904-01-01 00:31:59.324,200.0
1904-01-01 00:31:59.604,200.0
1904-01-01 00:31:59.724,200.0
1904-01-01 00:32:00.284,107.14285714285714
1904-01-01 00:32:00.384,200.0
1904-01-01 00:32:00.424,200.0
1904-01-01 00:32:00.624,200.0
1904-01-01 00:32:00.824,200.0
1904-01-01 00:32:01.024,200.0
1904-01-01 00:32:01.044,200.0
1904-01-01 00:32:01.344,200.0
1904-01-01 00:32:01.444,200.0
1904-01-01 00:32:01.464,200.0
1904-01-01 00:32:01.684,200.0
1904-01-01 00:32:01.864,200.0
1904-01-01 00:32:02.344,125.0
1904-01-01 00:32:02.424,200.0
1904-01-01 00:32:02.964,111.11111111111111
1904-01-01 00:32:02.984,200.0
1904-01-01 00:32:03.484,120.0
1904-01-01 00:32:03.584,200.0
1904-01-01 00:32:03.644,200.0
1904-01-01 00:32:03.724,200.0
1904-01-01 00:32:03.924,200.0
1904-01-01 00:32:04.324,150.0
1904-01-01 00:32:05.644,142.85714285714286
1904-01-01 00:32:05.664,200.0
1904-01-01 00:32:05.744,200.0
1904-01-01 00:32:05.904,200.0
1904-01-01 00:32:06.044,200.0
1904-01-01 00:32:06.104,200.0
1904-01-01 00:32:06.204,200.0
1904-01-01 00:32:06.324,200.0
1904-01-01 00:32:07.224,200.0
1904-01-01 00:32:07.644,142.85714285714286
1904-01-01 00:32:07.884,200.0
1904-01-01 00:32:08.164,200.0
1904-01-01 00:32:08.304,200.0
1904-01-01 00:32:08.444,200.0
1904-01-01 00:32:08.824,157.89473684210526
1904-01-01 00:32:08.964,200.0
1904-01-01 00:32:09.984,166.66666666666666
1904-01-01 00:32:10.084,200.0
1904-01-01 00:32:10.264,200.0
1904-01-01 00:32:10.364,200.0
1904-01-01 00:32:10.744,157.89473684210526
1904-01-01 00:32:10.844,200.0
1904-01-01 00:32:10.924,200.0
1904-01-01 00:32:11.044,200.0
1904-01-01 00:32:11.144,200.0
1904-01-01 00:32:11.184,200.0
1904-01-01 00:32:11.364,200.0
1904-01-01 00:32:11.384,200.0
1904-01-01 00:32:11.444,200.0
1904-01-01 00:32:11.604,200.0
1904-01-01 00:32:12.904,142.85714285714286
1904-01-01 00:32:12.924,200.0
1904-01-01 00:32:13.164,200.0
1904-01-01 00:32:13.324,200.0
1904-01-01 00:32:13.584,200.0
1904-01-01 00:32:13.604,200.0
1904-01-01 00:32:14.164,107.14285714285714
1904-01-01 00:32:14.244,200.0
1904-01-01 00:32:14.304,200.0
1904-01-01 00:32:14.424,200.0
1904-01-01 00:32:14.464,200.0
1904-01-01 00:32:14.704,200.0
1904-01-01 00:32:14.984,200.0
1904-01-01 00:32:15.224,200.0
1904-01-01 00:32:15.324,200.0
1904-01-01 00:32:15.544,200.0
1904-01-01 00:32:15.664,200.0
1904-01-01 00:32:16.104,136.36363636363637
1904-01-01 00:32:16.364,200.0
1904-01-01 00:32:16.544,200.0
1904-01-01 00:32:16.644,200.0
1904-01-01 00:32:16.824,200.0
1904-01-01 00:32:16.884,200.0
1904-01-01 00:32:17.044,200.0
1904-01-01 00:32:17.264,200.0
1904-01-01 00:32:17.704,136.36363636363637
1904-01-01 00:32:17.724,200.0
1904-01-01 00:32:17.864,200.0
1904-01-01 00:32:18.384,115.38461538461539
1904-01-01 00:32:18.404,200.0
1904-01-01 00:32:18.624,200.0
1904-01-01 00:32:18.744,200.0
1904-01-01 00:32:19.064,187.5
1904-01-01 00:32:19.464,150.0
1904-01-01 00:32:19.724,200.0
1904-01-01 00:32:19.804,200.0
1904-01-01 00:32:19.844,200.0
1904-01-01 00:32:20.064,200.0
1904-01-01 00:32:20.384,187.5
1904-01-01 00:32:20.404,200.0
1904-01-01 00:32:20.484,200.0
1904-01-01 00:32:20.624,200.0
1904-01-01 00:32:20.864,200.0
1904-01-01 00:32:20.984,200.0
1904-01-01 00:32:21.064,200.0
1904-01-01 00:32:21.184,200.0
1904-01-01 00:32:21.724,111.11111111111111
1904-01-01 00:32:21.984,200.0
1904-01-01 00:32:22.244,200.0
1904-01-01 00:32:22.404,200.0
1904-01-01 00:32:22.644,200.0
1904-01-01 00:32:22.784,200.0
1904-01-01 00:32:22.884,200.0
1904-01-01 00:32:23.084,200.0
1904-01-01 00:32:23.104,200.0
1904-01-01 00:32:23.184,200.0
1904-01-01 00:32:23.264,200.0
1904-01-01 00:32:23.344,200.0
1904-01-01 00:32:23.784,136.36363636363637
1904-01-01 00:32:24.704,200.0
1904-01-01 00:32:24.804,200.0
1904-01-01 00:32:25.084,200.0
1904-01-01 00:32:25.484,150.0
1904-01-01 00:32:25.504,200.0
1904-01-01 00:32:25.664,200.0
1904-01-01 00:32:25.824,200.0
1904-01-01 00:32:26.144,187.5
1904-01-01 00:32:26.164,200.0
1904-01-01 00:32:26.204,200.0
1904-01-01 00:32:26.524,187.5
1904-01-01 00:32:26.644,200.0
1904-01-01 00:32:26.744,200.0
1904-01-01 00:32:26.844,200.0
1904-01-01 00:32:26.984,200.0
1904-01-01 00:32:27.264,200.0
1904-01-01 00:32:27.364,200.0
1904-01-01 00:32:27.524,200.0
1904-01-01 00:32:27.864,176.47058823529412
1904-01-01 00:32:27.884,200.0
1904-01-01 00:32:27.964,200.0
1904-01-01 00:32:28.104,200.0
1904-01-01 00:32:28.544,136.36363636363637
1904-01-01 00:32:28.564,200.0
1904-01-01 00:32:28.684,200.0
1904-01-01 00:32:28.744,200.0
1904-01-01 00:32:29.024,200.0
1904-01-01 00:32:29.224,200.0
1904-01-01 00:32:29.284,200.0
1904-01-01 00:32:29.764,125.0
1904-01-01 00:32:29.784,200.0
1904-01-01 00:32:29.904,200.0
1904-01-01 00:32:30.004,200.0
1904-01-01 00:32:30.244,200.0
1904-01-01 00:32:32.724,200.0
1904-01-01 00:32:33.004,200.0
1904-01-01 00:32:33.284,200.0
1904-01-01 00:32:33.664,157.89473684210526
1904-01-01 00:32:33.704,200.0
1904-01-01 00:32:33.984,200.0
1904-01-01 00:32:34.244,200.0
1904-01-01 00:32:34.664,142.85714285714286
1904-01-01 00:32:34.684,200.0
1904-01-01 00:32:34.784,200.0
1904-01-01 00:32:34.884,200.0
1904-01-01 00:32:36.384,142.85714285714286
1904-01-01 00:32:36.404,200.0
1904-01-01 00:32:36.624,200.0
1904-01-01 00:32:36.764,200.0
1904-01-01 00:32:36.924,200.0
1904-01-01 00:32:37.144,200.0
1904-01-01 00:32:37.164,200.0
1904-01-01 00:32:37.284,200.0
1904-01-01 00:32:37.444,200.0
1904-01-01 00:32:38.424,200.0
1904-01-01 00:32:38.584,200.0
1904-01-01 00:32:38.824,200.0
1904-01-01 00:32:39.104,200.0
1904-01-01 00:32:39.224,200.0
1904-01-01 00:32:39.364,200.0
1904-01-01 00:32:39.524,200.0
1904-01-01 00:32:39.764,200.0
1904-01-01 00:32:40.044,200.0
1904-01-01 00:32:40.204,200.0
1904-01-01 00:32:40.304,200.0
1904-01-01 00:32:40.564,200.0
1904-01-01 00:32:40.744,200.0
1904-01-01 00:32:40.904,200.0
1904-01-01 00:32:41.164,200.0
1904-01-01 00:32:41.244,200.0
1904-01-01 00:32:41.424,200.0
1904-01-01 00:32:41.604,200.0
1904-01-01 00:32:41.824,200.0
1904-01-01 00:32:42.244,142.85714285714286
1904-01-01 00:32:42.304,200.0
1904-01-01 00:32:42.364,200.0
1904-01-01 00:32:42.464,200.0
1904-01-01 00:32:42.544,200.0
1904-01-01 00:32:42.964,142.85714285714286
1904-01-01 00:32:42.984,200.0
1904-01-01 00:32:43.224,200.0
1904-01-01 00:32:43.404,200.0
1904-01-01 00:32:43.524,200.0
1904-01-01 00:32:43.644,200.0
1904-01-01 00:32:43.984,176.47058823529412
1904-01-01 00:32:44.064,200.0
1904-01-01 00:32:44.284,200.0
1904-01-01 00:32:44.304,200.0
1904-01-01 00:32:44.524,200.0
1904-01-01 00:32:44.924,150.0
1904-01-01 00:32:44.944,200.0
1904-01-01 00:32:45.064,200.0
1904-01-01 00:32:45.584,115.38461538461539
1904-01-01 00:32:45.764,200.0
1904-01-01 00:32:46.244,125.0
1904-01-01 00:32:46.264,200.0
1904-01-01 00:32:46.844,103.44827586206897
1904-01-01 00:32:46.924,200.0
1904-01-01 00:32:47.064,200.0
1904-01-01 00:32:47.144,200.0
1904-01-01 00:32:47.284,200.0
1904-01-01 00:32:47.584,200.0
1904-01-01 00:32:47.604,200.0
1904-01-01 00:32:49.104,200.0
1904-01-01 00:32:49.204,200.0
1904-01-01 00:32:49.664,130.43478260869566
1904-01-01 00:32:50.144,125.0
1904-01-01 00:32:50.364,200.0
1904-01-01 00:32:50.604,200.0
1904-01-01 00:32:50.764,200.0
1904-01-01 00:32:51.064,200.0
1904-01-01 00:32:51.284,200.0
1904-01-01 00:32:51.564,200.0
1904-01-01 00:32:51.764,200.0
1904-01-01 00:32:52.024,200.0
1904-01-01 00:32:52.444,142.85714285714286
1904-01-01 00:32:52.824,157.89473684210526
1904-01-01 00:32:52.844,200.0
1904-01-01 00:32:53.124,200.0
1904-01-01 00:32:53.144,200.0
1904-01-01 00:32:53.504,166.66666666666666
1904-01-01 00:32:53.844,176.47058823529412
1904-01-01 00:32:53.944,200.0
1904-01-01 00:32:54.004,200.0
1904-01-01 00:32:54.104,200.0
1904-01-01 00:32:54.384,200.0
1904-01-01 00:32:54.404,200.0
1904-01-01 00:32:54.524,200.0
1904-01-01 00:32:55.304,200.0
1904-01-01 00:32:58.944,111.11111111111111
1904-01-01 00:32:58.964,200.0
1904-01-01 00:33:00.724,200.0
1904-01-01 00:33:01.204,125.0
1904-01-01 00:33:01.224,200.0
1904-01-01 00:33:02.184,200.0
1904-01-01 00:33:02.524,176.47058823529412
1904-01-01 00:33:02.644,200.0
1904-01-01 00:33:03.164,115.38461538461539
1904-01-01 00:33:03.324,200.0
1904-01-01 00:33:03.344,200.0
1904-01-01 00:33:04.544,115.38461538461539
1904-01-01 00:33:04.684,200.0
1904-01-01 00:33:04.824,200.0
1904-01-01 00:33:05.204,157.89473684210526
1904-01-01 00:33:05.244,200.0
1904-01-01 00:33:05.364,200.0
1904-01-01 00:33:06.284,200.0
1904-01-01 00:33:06.404,200.0
1904-01-01 00:33:06.684,200.0
1904-01-01 00:33:06.704,200.0
1904-01-01 00:33:06.844,200.0
1904-01-01 00:33:06.884,200.0
1904-01-01 00:33:06.944,200.0
1904-01-01 00:33:07.004,200.0
1904-01-01 00:33:07.364,166.66666666666666
1904-01-01 00:33:07.464,200.0
1904-01-01 00:33:07.544,200.0
1904-01-01 00:33:08.004,130.43478260869566
1904-01-01 00:33:08.424,142.85714285714286
1904-01-01 00:33:08.544,200.0
1904-01-01 00:33:08.644,200.0
1904-01-01 00:33:08.744,200.0
1904-01-01 00:33:09.744,200.0
1904-01-01 00:33:09.984,200.0
1904-01-01 00:33:10.124,200.0
1904-01-01 00:33:10.184,200.0
1904-01-01 00:33:10.264,200.0
1904-01-01 00:33:10.384,200.0
1904-01-01 00:33:10.764,157.89473684210526
1904-01-01 00:33:10.924,200.0
1904-01-01 00:33:11.304,157.89473684210526
1904-01-01 00:33:11.544,200.0
1904-01-01 00:33:11.584,200.0
1904-01-01 00:33:11.644,200.0
1904-01-01 00:33:11.884,200.0
1904-01-01 00:33:12.384,120.0
1904-01-01 00:33:12.404,200.0
1904-01-01 00:33:12.524,200.0
1904-01-01 00:33:13.104,103.44827586206897
1904-01-01 00:33:13.124,200.0
1904-01-01 00:33:13.924,200.0
1904-01-01 00:33:14.064,200.0
1904-01-01 00:33:14.204,200.0
1904-01-01 00:33:14.524,187.5
1904-01-01 00:33:14.544,200.0
1904-01-01 00:33:14.784,200.0
1904-01-01 00:33:14.804,200.0
1904-01-01 00:33:14.904,200.0
1904-01-01 00:33:15.084,200.0
1904-01-01 00:33:15.244,200.0
1904-01-01 00:33:15.404,200.0
1904-01-01 00:33:15.904,120.0
1904-01-01 00:33:16.004,200.0
1904-01-01 00:33:16.124,200.0
1904-01-01 00:33:16.564,136.36363636363637
1904-01-01 00:33:16.584,200.0
1904-01-01 00:33:16.984,150.0
1904-01-01 00:33:17.244,200.0
1904-01-01 00:33:17.384,200.0
1904-01-01 00:33:17.904,115.38461538461539
1904-01-01 00:33:18.124,200.0
1904-01-01 00:33:18.244,200.0
1904-01-01 00:33:18.544,200.0
1904-01-01 00:33:18.664,200.0
1904-01-01 00:33:18.744,200.0
1904-01-01 00:33:19.244,120.0
1904-01-01 00:33:19.264,200.0
1904-01-01 00:33:19.444,200.0
1904-01-01 00:33:19.824,157.89473684210526
1904-01-01 00:33:19.944,200.0
1904-01-01 00:33:20.084,200.0
1904-01-01 00:33:20.284,200.0
1904-01-01 00:33:20.444,200.0
1904-01-01 00:33:20.484,200.0
1904-01-01 00:33:20.704,200.0
1904-01-01 00:33:20.724,200.0
1904-01-01 00:33:20.844,200.0
1904-01-01 00:33:21.124,200.0
1904-01-01 00:33:21.144,200.0
1904-01-01 00:33:21.224,200.0
1904-01-01 00:33:21.344,200.0
1904-01-01 00:33:21.444,200.0
1904-01-01 00:33:21.804,166.66666666666666
1904-01-01 00:33:22.364,107.14285714285714
1904-01-01 00:33:22.484,200.0
1904-01-01 00:33:22.564,200.0
1904-01-01 00:33:22.844,200.0
1904-01-01 00:33:23.204,166.66666666666666
1904-01-01 00:33:23.384,200.0
1904-01-01 00:33:23.464,200.0
1904-01-01 00:33:23.644,200.0
1904-01-01 00:33:23.924,200.0
1904-01-01 00:33:24.184,200.0
1904-01-01 00:33:24.364,200.0
1904-01-01 00:33:24.584,200.0
1904-01-01 00:33:24.624,200.0
1904-01-01 00:33:24.924,200.0
1904-01-01 00:33:24.944,200.0
1904-01-01 00:33:25.124,200.0
1904-01-01 00:33:25.364,200.0
1904-01-01 00:33:25.604,200.0
1904-01-01 00:33:25.744,200.0
1904-01-01 00:33:25.924,200.0
1904-01-01 00:33:26.064,200.0
1904-01-01 00:33:26.224,200.0
1904-01-01 00:33:26.344,200.0
1904-01-01 00:33:26.744,150.0
1904-01-01 00:33:26.764,200.0
1904-01-01 00:33:27.324,107.14285714285714
1904-01-01 00:33:27.344,200.0
1904-01-01 00:33:27.444,200.0
1904-01-01 00:33:27.704,200.0
1904-01-01 00:33:28.104,150.0
1904-01-01 00:33:28.124,200.0
1904-01-01 00:33:28.304,200.0
1904-01-01 00:33:28.384,200.0
1904-01-01 00:33:28.784,150.0
1904-01-01 00:33:28.804,200.0
1904-01-01 00:33:29.024,200.0
1904-01-01 00:33:29.444,142.85714285714286
1904-01-01 00:33:29.464,200.0
1904-01-01 00:33:29.524,200.0
1904-01-01 00:33:29.624,200.0
1904-01-01 00:33:30.104,125.0
1904-01-01 00:33:30.124,200.0
1904-01-01 00:33:30.364,200.0
1904-01-01 00:33:30.544,200.0
1904-01-01 00:33:30.784,200.0
1904-01-01 00:33:31.044,200.0
1904-01-01 00:33:31.224,200.0
1904-01-01 00:33:31.344,200.0
1904-01-01 00:33:31.484,200.0
1904-01-01 00:33:32.364,200.0
1904-01-01 00:33:32.724,166.66666666666666
1904-01-01 00:33:32.764,200.0
1904-01-01 00:33:32.904,200.0
1904-01-01 00:33:32.964,200.0
1904-01-01 00:33:33.304,176.47058823529412
1904-01-01 00:33:33.464,200.0
1904-01-01 00:33:33.664,200.0
1904-01-01 00:33:34.024,166.66666666666666
1904-01-01 00:33:34.364,176.47058823529412
1904-01-01 00:33:34.424,200.0
1904-01-01 00:33:34.764,176.47058823529412
1904-01-01 00:33:34.784,200.0
1904-01-01 00:33:35.144,166.66666666666666
1904-01-01 00:33:35.164,200.0
1904-01-01 00:33:35.544,157.89473684210526
1904-01-01 00:33:35.884,176.47058823529412
1904-01-01 00:33:35.904,200.0
1904-01-01 00:33:36.144,200.0
1904-01-01 00:33:36.464,187.5
1904-01-01 00:33:36.624,200.0
1904-01-01 00:33:36.884,200.0
1904-01-01 00:33:37.304,142.85714285714286
1904-01-01 00:33:37.324,200.0
1904-01-01 00:33:37.424,200.0
1904-01-01 00:33:37.984,107.14285714285714
1904-01-01 00:33:38.004,200.0
1904-01-01 00:33:38.424,142.85714285714286
1904-01-01 00:33:38.684,200.0
1904-01-01 00:33:38.864,200.0
1904-01-01 00:33:38.884,200.0
1904-01-01 00:33:39.064,200.0
1904-01-01 00:33:39.324,200.0
1904-01-01 00:33:39.344,200.0
1904-01-01 00:33:39.424,200.0
1904-01-01 00:33:39.564,200.0
1904-01-01 00:33:39.824,200.0
1904-01-01 00:33:39.984,200.0
1904-01-01 00:33:40.164,200.0
1904-01-01 00:33:40.224,200.0
1904-01-01 00:33:40.264,200.0
1904-01-01 00:33:40.624,166.66666666666666
1904-01-01 00:33:40.644,200.0
1904-01-01 00:33:40.724,200.0
1904-01-01 00:33:40.824,200.0
1904-01-01 00:33:40.864,200.0
1904-01-01 00:33:40.984,200.0
1904-01-01 00:33:41.144,200.0
1904-01-01 00:33:41.164,200.0
1904-01-01 00:33:41.304,200.0
1904-01-01 00:33:41.804,120.0
1904-01-01 00:33:41.964,200.0
1904-01-01 00:33:41.984,200.0
1904-01-01 00:33:42.204,200.0
1904-01-01 00:33:42.984,200.0
1904-01-01 00:33:43.044,200.0
1904-01-01 00:33:43.324,200.0
1904-01-01 00:33:43.424,200.0
1904-01-01 00:33:43.724,200.0
1904-01-01 00:33:44.044,187.5
1904-01-01 00:33:44.564,115.38461538461539
1904-01-01 00:33:44.704,200.0
1904-01-01 00:33:44.724,200.0
1904-01-01 00:33:44.824,200.0
1904-01-01 00:33:44.904,200.0
1904-01-01 00:33:45.024,200.0
1904-01-01 00:33:45.164,200.0
1904-01-01 00:33:45.284,200.0
1904-01-01 00:33:45.424,200.0
1904-01-01 00:33:45.744,187.5
1904-01-01 00:33:46.104,166.66666666666666
1904-01-01 00:33:46.124,200.0
1904-01-01 00:33:46.224,200.0
1904-01-01 00:33:46.784,107.14285714285714
1904-01-01 00:33:46.804,200.0
1904-01-01 00:33:47.124,187.5
1904-01-01 00:33:47.464,176.47058823529412
1904-01-01 00:33:47.484,200.0
1904-01-01 00:33:47.724,200.0
1904-01-01 00:33:48.124,150.0
1904-01-01 00:33:48.144,200.0
1904-01-01 00:33:48.244,200.0
1904-01-01 00:33:48.784,111.11111111111111
1904-01-01 00:33:48.804,200.0
1904-01-01 00:33:48.984,200.0
1904-01-01 00:33:49.424,136.36363636363637
1904-01-01 00:33:49.444,200.0
1904-01-01 00:33:49.504,200.0
1904-01-01 00:33:49.864,166.66666666666666
1904-01-01 00:33:50.064,200.0
1904-01-01 00:33:50.284,200.0
1904-01-01 00:33:50.564,200.0
1904-01-01 00:33:50.704,200.0
1904-01-01 00:33:50.944,200.0
1904-01-01 00:33:51.344,150.0
1904-01-01 00:33:51.364,200.0
1904-01-01 00:33:51.444,200.0
1904-01-01 00:33:51.544,200.0
1904-01-01 00:33:51.644,200.0
1904-01-01 00:33:52.004,166.66666666666666
1904-01-01 00:33:52.144,200.0
1904-01-01 00:33:52.624,125.0
1904-01-01 00:33:52.644,200.0
1904-01-01 00:33:52.804,200.0
1904-01-01 00:33:53.284,125.0
1904-01-01 00:33:53.304,200.0
1904-01-01 00:33:53.524,200.0
1904-01-01 00:33:53.764,200.0
1904-01-01 00:33:53.964,200.0
1904-01-01 00:33:54.044,200.0
1904-01-01 00:33:54.184,200.0
1904-01-01 00:33:54.484,200.0
1904-01-01 00:33:54.644,200.0
1904-01-01 00:33:54.884,200.0
1904-01-01 00:33:55.284,150.0
1904-01-01 00:33:55.304,200.0
1904-01-01 00:33:55.784,125.0
1904-01-01 00:33:55.804,200.0
1904-01-01 00:33:55.884,200.0
1904-01-01 00:33:55.984,200.0
1904-01-01 00:33:56.204,200.0
1904-01-01 00:33:56.304,200.0
1904-01-01 00:33:56.344,200.0
1904-01-01 00:33:56.384,200.0
1904-01-01 00:33:56.664,200.0
1904-01-01 00:33:57.404,200.0
1904-01-01 00:33:57.524,200.0
1904-01-01 00:33:57.584,200.0
1904-01-01 00:33:57.804,200.0
1904-01-01 00:33:58.024,200.0
1904-01-01 00:33:58.104,200.0
1904-01-01 00:33:58.264,200.0
1904-01-01 00:33:58.724,130.43478260869566
1904-01-01 00:33:58.884,200.0
1904-01-01 00:33:58.944,200.0
1904-01-01 00:33:59.404,130.43478260869566
1904-01-01 00:33:59.564,200.0
1904-01-01 00:33:59.684,200.0
1904-01-01 00:34:00.084,150.0
1904-01-01 00:34:00.224,200.0
1904-01-01 00:34:00.644,142.85714285714286
1904-01-01 00:34:00.784,200.0
1904-01-01 00:34:01.364,103.44827586206897
1904-01-01 00:34:01.544,200.0
1904-01-01 00:34:01.564,200.0
1904-01-01 00:34:02.044,125.0
1904-01-01 00:34:02.184,200.0
1904-01-01 00:34:02.404,200.0
1904-01-01 00:34:02.604,200.0
1904-01-01 00:34:02.744,200.0
1904-01-01 00:34:02.884,200.0
1904-01-01 00:34:03.244,166.66666666666666
1904-01-01 00:34:03.404,200.0
1904-01-01 00:34:03.504,200.0
1904-01-01 00:34:03.564,200.0
1904-01-01 00:34:03.844,200.0
1904-01-01 00:34:04.004,200.0
1904-01-01 00:34:04.244,200.0
1904-01-01 00:34:04.264,200.0
1904-01-01 00:34:04.624,166.66666666666666
1904-01-01 00:34:04.904,200.0
1904-01-01 00:34:04.924,200.0
1904-01-01 00:34:05.044,200.0
1904-01-01 00:34:05.124,200.0
1904-01-01 00:34:05.604,125.0
1904-01-01 00:34:06.144,111.11111111111111
1904-01-01 00:34:06.304,200.0
1904-01-01 00:34:06.424,200.0
1904-01-01 00:34:06.984,107.14285714285714
1904-01-01 00:34:07.004,200.0
1904-01-01 00:34:07.124,200.0
1904-01-01 00:34:07.244,200.0
1904-01-01 00:34:07.324,200.0
1904-01-01 00:34:07.684,166.66666666666666
1904-01-01 00:34:07.704,200.0
1904-01-01 00:34:07.844,200.0
1904-01-01 00:34:08.104,200.0
1904-01-01 00:34:08.204,200.0
1904-01-01 00:34:08.404,200.0
1904-01-01 00:34:08.504,200.0
1904-01-01 00:34:08.784,200.0
1904-01-01 00:34:09.124,176.47058823529412
1904-01-01 00:34:09.384,200.0
1904-01-01 00:34:09.464,200.0
1904-01-01 00:34:09.824,166.66666666666666
1904-01-01 00:34:09.844,200.0
1904-01-01 00:34:10.064,200.0
1904-01-01 00:34:10.284,200.0
1904-01-01 00:34:10.384,200.0
1904-01-01 00:34:10.524,200.0
1904-01-01 00:34:10.604,200.0
1904-01-01 00:34:10.764,200.0
1904-01-01 00:34:10.924,200.0
1904-01-01 00:34:11.044,200.0
1904-01-01 00:34:11.164,200.0
1904-01-01 00:34:11.204,200.0
1904-01-01 00:34:11.344,200.0
1904-01-01 00:34:11.884,111.11111111111111
1904-01-01 00:34:11.904,200.0
1904-01-01 00:34:12.204,200.0
1904-01-01 00:34:12.564,166.66666666666666
1904-01-01 00:34:12.584,200.0
1904-01-01 00:34:13.144,107.14285714285714
1904-01-01 00:34:13.244,200.0
1904-01-01 00:34:13.304,200.0
1904-01-01 00:34:13.804,120.0
1904-01-01 00:34:13.944,200.0
1904-01-01 00:34:14.404,130.43478260869566
1904-01-01 00:34:14.624,200.0
1904-01-01 00:34:15.504,200.0
1904-01-01 00:34:15.744,200.0
1904-01-01 00:34:16.004,200.0
1904-01-01 00:34:16.104,200.0
1904-01-01 00:34:16.604,120.0
1904-01-01 00:34:16.624,200.0
1904-01-01 00:34:16.724,200.0
1904-01-01 00:34:16.864,200.0
1904-01-01 00:34:16.944,200.0
1904-01-01 00:34:17.424,125.0
1904-01-01 00:34:17.444,200.0
1904-01-01 00:34:18.004,107.14285714285714
1904-01-01 00:34:18.164,200.0
1904-01-01 00:34:18.364,200.0
1904-01-01 00:34:18.564,200.0
1904-01-01 00:34:18.644,200.0
1904-01-01 00:34:18.904,200.0
1904-01-01 00:34:19.044,200.0
1904-01-01 00:34:19.244,200.0
1904-01-01 00:34:19.364,200.0
1904-01-01 00:34:19.604,200.0
1904-01-01 00:34:20.144,111.11111111111111
1904-01-01 00:34:20.304,200.0
1904-01-01 00:34:20.424,200.0
1904-01-01 00:34:20.744,187.5
1904-01-01 00:34:20.804,200.0
1904-01-01 00:34:20.864,200.0
1904-01-01 00:34:21.004,200.0
1904-01-01 00:34:21.344,176.47058823529412
1904-01-01 00:34:21.404,200.0
1904-01-01 00:34:21.684,200.0
1904-01-01 00:34:21.704,200.0
1904-01-01 00:34:22.604,200.0
1904-01-01 00:34:22.724,200.0
1904-01-01 00:34:23.024,200.0
1904-01-01 00:34:23.104,200.0
1904-01-01 00:34:23.384,200.0
1904-01-01 00:34:23.484,200.0
1904-01-01 00:34:23.664,200.0
1904-01-01 00:34:23.684,200.0
1904-01-01 00:34:24.184,120.0
1904-01-01 00:34:24.224,200.0
1904-01-01 00:34:25.304,200.0
1904-01-01 00:34:25.404,200.0
1904-01-01 00:34:25.704,200.0
1904-01-01 00:34:25.844,200.0
1904-01-01 00:34:26.044,200.0
1904-01-01 00:34:26.224,200.0
1904-01-01 00:34:26.364,200.0
1904-01-01 00:34:26.504,200.0
1904-01-01 00:34:26.884,157.89473684210526
1904-01-01 00:34:27.024,200.0
1904-01-01 00:34:27.044,200.0
1904-01-01 00:34:27.884,200.0
1904-01-01 00:34:28.004,200.0
1904-01-01 00:34:28.284,200.0
1904-01-01 00:34:28.444,200.0
1904-01-01 00:34:28.604,200.0
1904-01-01 00:34:28.964,166.66666666666666
1904-01-01 00:34:29.164,200.0
1904-01-01 00:34:29.184,200.0
1904-01-01 00:34:29.284,200.0
1904-01-01 00:34:29.604,187.5
1904-01-01 00:34:29.724,200.0
1904-01-01 00:34:29.904,200.0
1904-01-01 00:34:29.924,200.0
1904-01-01 00:34:30.264,176.47058823529412
1904-01-01 00:34:30.644,157.89473684210526
1904-01-01 00:34:30.684,200.0
1904-01-01 00:34:30.744,200.0
1904-01-01 00:34:31.084,176.47058823529412
1904-01-01 00:34:31.164,200.0
1904-01-01 00:34:31.344,200.0
1904-01-01 00:34:31.364,200.0
1904-01-01 00:34:31.784,142.85714285714286
1904-01-01 00:34:32.064,200.0
1904-01-01 00:34:32.624,107.14285714285714
1904-01-01 00:34:32.704,200.0
1904-01-01 00:34:32.764,200.0
1904-01-01 00:34:33.164,150.0
1904-01-01 00:34:33.324,200.0
1904-01-01 00:34:33.464,200.0
1904-01-01 00:34:33.704,200.0
1904-01-01 00:34:33.984,200.0
1904-01-01 00:34:34.144,200.0
1904-01-01 00:34:34.984,200.0
1904-01-01 00:34:35.324,176.47058823529412
1904-01-01 00:34:36.484,200.0
1904-01-01 00:34:36.904,142.85714285714286
1904-01-01 00:34:36.924,200.0
1904-01-01 00:34:37.004,200.0
1904-01-01 00:34:38.584,200.0
1904-01-01 00:34:38.724,200.0
1904-01-01 00:34:38.824,200.0
1904-01-01 00:34:39.164,176.47058823529412
1904-01-01 00:34:39.344,200.0
1904-01-01 00:34:39.784,136.36363636363637
1904-01-01 00:34:39.904,200.0
1904-01-01 00:34:40.144,200.0
1904-01-01 00:34:40.464,187.5
1904-01-01 00:34:40.644,200.0
1904-01-01 00:34:40.664,200.0
1904-01-01 00:34:40.904,200.0
1904-01-01 00:34:41.384,125.0
1904-01-01 00:34:41.504,200.0
1904-01-01 00:34:41.744,200.0
1904-01-01 00:34:41.944,200.0
1904-01-01 00:34:42.104,200.0
1904-01-01 00:34:42.344,200.0
1904-01-01 00:34:43.664,200.0
1904-01-01 00:34:44.184,115.38461538461539
1904-01-01 00:34:44.204,200.0
1904-01-01 00:34:45.064,200.0
1904-01-01 00:34:45.344,200.0
1904-01-01 00:34:45.564,200.0
1904-01-01 00:34:45.584,200.0
1904-01-01 00:34:47.424,200.0
1904-01-01 00:34:47.544,200.0
1904-01-01 00:34:47.704,200.0
1904-01-01 00:34:47.824,200.0
1904-01-01 00:34:49.044,115.38461538461539
1904-01-01 00:34:49.184,200.0
1904-01-01 00:34:52.304,200.0
1904-01-01 00:34:52.724,142.85714285714286
1904-01-01 00:34:52.744,200.0
1904-01-01 00:36:00.524,111.11111111111111
1904-01-01 00:36:00.624,200.0
1904-01-01 00:36:01.164,111.11111111111111
1904-01-01 00:36:01.324,200.0
1904-01-01 00:36:03.844,200.0
1904-01-01 00:36:05.564,200.0
1904-01-01 00:36:07.284,157.89473684210526
1904-01-01 00:36:07.684,150.0
1904-01-01 00:36:10.044,111.11111111111111
1904-01-01 00:36:10.604,107.14285714285714
1904-01-01 00:36:10.644,200.0
1904-01-01 00:36:53.764,200.0
1904-01-01 00:36:55.544,200.0
1904-01-01 00:36:56.044,120.0
1904-01-01 00:36:58.944,200.0
1904-01-01 00:37:08.824,120.0
1904-01-01 00:37:10.284,200.0
1904-01-01 00:37:10.504,200.0
1904-01-01 00:37:11.024,115.38461538461539
1904-01-01 00:37:12.504,115.38461538461539
1904-01-01 00:37:12.764,200.0
1904-01-01 00:37:13.064,200.0
1904-01-01 00:37:13.284,200.0
1904-01-01 00:37:13.884,100.0
1904-01-01 00:37:13.904,200.0
1904-01-01 00:37:14.064,200.0
1904-01-01 00:37:14.584,115.38461538461539
1904-01-01 00:37:14.844,200.0
1904-01-01 00:37:14.864,200.0
1904-01-01 00:37:15.304,136.36363636363637
1904-01-01 00:37:15.684,157.89473684210526
1904-01-01 00:37:15.764,200.0
1904-01-01 00:37:18.704,100.0
1904-01-01 00:37:18.864,200.0
1904-01-01 00:37:18.944,200.0
1904-01-01 00:37:20.224,100.0
1904-01-01 00:37:20.344,200.0
1904-01-01 00:37:21.284,200.0
1904-01-01 00:37:21.644,166.66666666666666
1904-01-01 00:37:21.764,200.0
1904-01-01 00:37:22.004,200.0
1904-01-01 00:37:22.464,130.43478260869566
1904-01-01 00:37:22.484,200.0
1904-01-01 00:37:23.444,200.0
1904-01-01 00:37:23.884,136.36363636363637
1904-01-01 00:37:24.124,200.0
1904-01-01 00:37:24.444,187.5
1904-01-01 00:37:24.544,200.0
1904-01-01 00:37:24.684,200.0
1904-01-01 00:37:24.704,200.0
1904-01-01 00:37:24.844,200.0
1904-01-01 00:37:26.804,200.0
1904-01-01 00:37:27.024,200.0
1904-01-01 00:37:27.544,115.38461538461539
1904-01-01 00:37:27.804,200.0
1904-01-01 00:37:28.104,200.0
1904-01-01 00:37:28.264,200.0
1904-01-01 00:37:28.284,200.0
1904-01-01 00:37:28.764,125.0
1904-01-01 00:37:28.904,200.0
1904-01-01 00:37:29.024,200.0
1904-01-01 00:37:30.064,200.0
1904-01-01 00:37:30.444,157.89473684210526
1904-01-01 00:37:30.464,200.0
1904-01-01 00:37:30.704,200.0
1904-01-01 00:37:31.024,187.5
1904-01-01 00:37:31.164,200.0
1904-01-01 00:37:32.544,130.43478260869566
1904-01-01 00:37:32.964,142.85714285714286
1904-01-01 00:37:33.224,200.0
1904-01-01 00:37:33.244,200.0
1904-01-01 00:37:34.184,200.0
1904-01-01 00:37:34.624,136.36363636363637
1904-01-01 00:37:35.124,120.0
1904-01-01 00:37:35.284,200.0
1904-01-01 00:37:35.324,200.0
1904-01-01 00:37:35.404,200.0
1904-01-01 00:37:35.984,103.44827586206897
1904-01-01 00:37:36.164,200.0
1904-01-01 00:37:36.284,200.0
1904-01-01 00:37:36.624,176.47058823529412
1904-01-01 00:37:36.644,200.0
1904-01-01 00:37:37.224,103.44827586206897
1904-01-01 00:37:37.324,200.0
1904-01-01 00:37:37.864,111.11111111111111
1904-01-01 00:37:38.004,200.0
1904-01-01 00:37:38.344,176.47058823529412
1904-01-01 00:37:38.384,200.0
1904-01-01 00:37:38.564,200.0
1904-01-01 00:37:38.684,200.0
1904-01-01 00:37:38.944,200.0
1904-01-01 00:37:39.344,150.0
1904-01-01 00:37:39.404,200.0
1904-01-01 00:37:39.504,200.0
1904-01-01 00:37:40.504,200.0
1904-01-01 00:37:40.824,187.5
1904-01-01 00:37:40.924,200.0
1904-01-01 00:37:41.524,100.0
1904-01-01 00:37:41.884,166.66666666666666
1904-01-01 00:37:42.204,187.5
1904-01-01 00:37:42.224,200.0
1904-01-01 00:37:42.504,200.0
1904-01-01 00:37:42.884,157.89473684210526
1904-01-01 00:37:42.904,200.0
1904-01-01 00:37:43.644,200.0
1904-01-01 00:37:43.924,200.0
1904-01-01 00:37:44.004,200.0
1904-01-01 00:37:44.224,200.0
1904-01-01 00:37:44.324,200.0
1904-01-01 00:37:44.424,200.0
1904-01-01 00:37:44.564,200.0
1904-01-01 00:37:45.824,200.0
1904-01-01 00:37:46.224,150.0
1904-01-01 00:37:46.364,200.0
1904-01-01 00:37:46.764,150.0
1904-01-01 00:37:46.924,200.0
1904-01-01 00:37:47.164,200.0
1904-01-01 00:37:47.624,130.43478260869566
1904-01-01 00:37:47.644,200.0
1904-01-01 00:37:48.904,200.0
1904-01-01 00:37:49.004,200.0
1904-01-01 00:37:49.064,200.0
1904-01-01 00:37:49.144,200.0
1904-01-01 00:37:50.044,200.0
1904-01-01 00:37:50.244,200.0
1904-01-01 00:37:50.484,200.0
1904-01-01 00:37:50.504,200.0
1904-01-01 00:37:51.324,200.0
1904-01-01 00:37:51.424,200.0
1904-01-01 00:37:51.604,200.0
1904-01-01 00:37:51.924,187.5
1904-01-01 00:37:52.224,200.0
1904-01-01 00:37:52.324,200.0
1904-01-01 00:37:52.524,200.0
1904-01-01 00:37:52.624,200.0
1904-01-01 00:37:52.904,200.0
1904-01-01 00:37:53.004,200.0
1904-01-01 00:37:53.304,200.0
1904-01-01 00:37:53.324,200.0
1904-01-01 00:37:53.604,200.0
1904-01-01 00:37:54.004,150.0
1904-01-01 00:37:54.104,200.0
1904-01-01 00:37:54.404,200.0
1904-01-01 00:37:54.504,200.0
1904-01-01 00:37:54.684,200.0
1904-01-01 00:37:56.044,120.0
1904-01-01 00:37:56.064,200.0
1904-01-01 00:37:56.464,150.0
1904-01-01 00:37:56.624,200.0
1904-01-01 00:37:56.764,200.0
1904-01-01 00:37:58.184,200.0
1904-01-01 00:37:58.204,200.0
1904-01-01 00:37:58.484,200.0
1904-01-01 00:37:58.944,130.43478260869566
1904-01-01 00:37:58.964,200.0
1904-01-01 00:37:59.224,200.0
1904-01-01 00:37:59.344,200.0
1904-01-01 00:37:59.384,200.0
1904-01-01 00:37:59.704,187.5
1904-01-01 00:37:59.924,200.0
1904-01-01 00:38:00.104,200.0
1904-01-01 00:38:00.364,200.0
1904-01-01 00:38:00.484,200.0
1904-01-01 00:38:00.764,200.0
1904-01-01 00:38:01.244,125.0
1904-01-01 00:38:01.504,200.0
1904-01-01 00:38:02.004,120.0
1904-01-01 00:38:02.044,200.0
1904-01-01 00:38:02.164,200.0
1904-01-01 00:38:02.384,200.0
1904-01-01 00:38:02.704,187.5
1904-01-01 00:38:02.724,200.0
1904-01-01 00:38:02.784,200.0
1904-01-01 00:38:02.964,200.0
1904-01-01 00:38:03.284,187.5
1904-01-01 00:38:03.444,200.0
1904-01-01 00:38:03.464,200.0
1904-01-01 00:38:03.744,200.0
1904-01-01 00:38:03.844,200.0
1904-01-01 00:38:04.144,200.0
1904-01-01 00:38:04.164,200.0
1904-01-01 00:38:04.444,200.0
1904-01-01 00:38:04.864,142.85714285714286
1904-01-01 00:38:04.964,200.0
1904-01-01 00:38:05.084,200.0
1904-01-01 00:38:05.424,176.47058823529412
1904-01-01 00:38:05.564,200.0
1904-01-01 00:38:05.724,200.0
1904-01-01 00:38:06.244,115.38461538461539
1904-01-01 00:38:06.264,200.0
1904-01-01 00:38:06.664,150.0
1904-01-01 00:38:06.704,200.0
1904-01-01 00:38:06.804,200.0
1904-01-01 00:38:06.944,200.0
1904-01-01 00:38:08.004,176.47058823529412
1904-01-01 00:38:08.204,200.0
1904-01-01 00:38:08.344,200.0
1904-01-01 00:38:08.544,200.0
1904-01-01 00:38:08.584,200.0
1904-01-01 00:38:08.704,200.0
1904-01-01 00:38:09.044,176.47058823529412
1904-01-01 00:38:09.064,200.0
1904-01-01 00:38:09.304,200.0
1904-01-01 00:38:09.604,200.0
1904-01-01 00:38:09.804,200.0
1904-01-01 00:38:10.044,200.0
1904-01-01 00:38:10.504,130.43478260869566
1904-01-01 00:38:10.524,200.0
1904-01-01 00:38:10.664,200.0
1904-01-01 00:38:11.004,176.47058823529412
1904-01-01 00:38:11.244,200.0
1904-01-01 00:38:11.264,200.0
1904-01-01 00:38:11.444,200.0
1904-01-01 00:38:11.504,200.0
1904-01-01 00:38:11.584,200.0
1904-01-01 00:38:11.984,150.0
1904-01-01 00:38:12.004,200.0
1904-01-01 00:38:12.104,200.0
1904-01-01 00:38:12.564,130.43478260869566
1904-01-01 00:38:12.784,200.0
1904-01-01 00:38:12.804,200.0
1904-01-01 00:38:13.044,200.0
1904-01-01 00:38:13.424,157.89473684210526
1904-01-01 00:38:13.444,200.0
1904-01-01 00:38:13.604,200.0
1904-01-01 00:38:13.724,200.0
1904-01-01 00:38:13.764,200.0
1904-01-01 00:38:13.904,200.0
1904-01-01 00:38:14.164,200.0
1904-01-01 00:38:14.964,200.0
1904-01-01 00:38:15.224,200.0
1904-01-01 00:38:15.544,187.5
1904-01-01 00:38:15.564,200.0
1904-01-01 00:38:15.904,176.47058823529412
1904-01-01 00:38:16.244,176.47058823529412
1904-01-01 00:38:16.264,200.0
1904-01-01 00:38:16.404,200.0
1904-01-01 00:38:16.524,200.0
1904-01-01 00:38:16.584,200.0
1904-01-01 00:38:16.624,200.0
1904-01-01 00:38:16.924,200.0
1904-01-01 00:38:16.944,200.0
1904-01-01 00:38:17.164,200.0
1904-01-01 00:38:17.624,130.43478260869566
1904-01-01 00:38:17.644,200.0
1904-01-01 00:38:18.204,107.14285714285714
1904-01-01 00:38:18.324,200.0
1904-01-01 00:38:18.704,157.89473684210526
1904-01-01 00:38:18.884,200.0
1904-01-01 00:38:19.004,200.0
1904-01-01 00:38:19.224,200.0
1904-01-01 00:38:19.704,125.0
1904-01-01 00:38:19.784,200.0
1904-01-01 00:38:20.504,200.0
1904-01-01 00:38:20.684,200.0
1904-01-01 00:38:20.804,200.0
1904-01-01 00:38:21.124,187.5
1904-01-01 00:38:21.224,200.0
1904-01-01 00:38:21.524,200.0
1904-01-01 00:38:21.704,200.0
1904-01-01 00:38:21.844,200.0
1904-01-01 00:38:21.944,200.0
1904-01-01 00:38:22.304,166.66666666666666
1904-01-01 00:38:22.424,200.0
1904-01-01 00:38:22.584,200.0
1904-01-01 00:38:23.704,200.0
1904-01-01 00:38:24.004,200.0
1904-01-01 00:38:25.384,107.14285714285714
1904-01-01 00:38:25.404,200.0
1904-01-01 00:38:25.544,200.0
1904-01-01 00:38:25.604,200.0
1904-01-01 00:38:26.084,125.0
1904-01-01 00:38:26.104,200.0
1904-01-01 00:38:26.244,200.0
1904-01-01 00:38:26.344,200.0
1904-01-01 00:38:26.784,136.36363636363637
1904-01-01 00:38:27.004,200.0
1904-01-01 00:38:27.324,187.5
1904-01-01 00:38:27.484,200.0
1904-01-01 00:38:27.824,176.47058823529412
1904-01-01 00:38:28.164,176.47058823529412
1904-01-01 00:38:29.564,150.0
1904-01-01 00:38:29.804,200.0
1904-01-01 00:38:30.264,130.43478260869566
1904-01-01 00:38:30.584,187.5
1904-01-01 00:38:30.764,200.0
1904-01-01 00:38:30.844,200.0
1904-01-01 00:38:30.924,200.0
1904-01-01 00:38:31.784,200.0
1904-01-01 00:38:33.384,200.0
1904-01-01 00:38:33.624,200.0
1904-01-01 00:38:33.864,200.0
1904-01-01 00:38:34.704,200.0
1904-01-01 00:38:35.264,107.14285714285714
1904-01-01 00:38:35.664,150.0
1904-01-01 00:38:35.784,200.0
1904-01-01 00:38:35.824,200.0
1904-01-01 00:38:35.944,200.0
1904-01-01 00:38:36.044,200.0
1904-01-01 00:38:36.624,103.44827586206897
1904-01-01 00:38:36.644,200.0
1904-01-01 00:38:36.884,200.0
1904-01-01 00:38:37.064,200.0
1904-01-01 00:38:37.304,200.0
1904-01-01 00:38:39.104,120.0
1904-01-01 00:38:39.244,200.0
1904-01-01 00:38:39.504,200.0
1904-01-01 00:38:39.604,200.0
1904-01-01 00:38:39.904,200.0
1904-01-01 00:38:41.184,150.0
1904-01-01 00:38:41.204,200.0
1904-01-01 00:38:41.324,200.0
1904-01-01 00:38:41.864,111.11111111111111
1904-01-01 00:38:41.884,200.0
1904-01-01 00:38:42.384,120.0
1904-01-01 00:38:42.544,200.0
1904-01-01 00:38:42.644,200.0
1904-01-01 00:38:43.244,100.0
1904-01-01 00:38:43.504,200.0
1904-01-01 00:38:43.744,200.0
1904-01-01 00:38:43.944,200.0
1904-01-01 00:38:44.164,200.0
1904-01-01 00:38:44.304,200.0
1904-01-01 00:38:44.484,200.0
1904-01-01 00:38:44.624,200.0
1904-01-01 00:38:46.004,136.36363636363637
1904-01-01 00:38:46.924,200.0
1904-01-01 00:38:47.264,176.47058823529412
1904-01-01 00:38:47.384,200.0
1904-01-01 00:38:47.804,142.85714285714286
1904-01-01 00:38:47.824,200.0
1904-01-01 00:38:48.044,200.0
1904-01-01 00:38:48.304,200.0
1904-01-01 00:38:48.724,142.85714285714286
1904-01-01 00:38:48.784,200.0
1904-01-01 00:38:48.884,200.0
1904-01-01 00:38:48.944,200.0
1904-01-01 00:38:49.244,200.0
1904-01-01 00:38:49.384,200.0
1904-01-01 00:38:49.744,166.66666666666666
1904-01-01 00:38:50.044,200.0
1904-01-01 00:38:50.064,200.0
1904-01-01 00:38:51.404,200.0
1904-01-01 00:38:51.424,200.0
1904-01-01 00:38:52.364,200.0
1904-01-01 00:38:52.484,200.0
1904-01-01 00:38:52.864,157.89473684210526
1904-01-01 00:38:52.884,200.0
1904-01-01 00:38:53.244,166.66666666666666
1904-01-01 00:38:53.584,176.47058823529412
1904-01-01 00:38:53.604,200.0
1904-01-01 00:38:54.464,200.0
1904-01-01 00:38:54.584,200.0
1904-01-01 00:38:54.704,200.0
1904-01-01 00:38:55.064,166.66666666666666
1904-01-01 00:38:55.084,200.0
1904-01-01 00:38:56.964,166.66666666666666
1904-01-01 00:38:57.064,200.0
1904-01-01 00:38:57.204,200.0
1904-01-01 00:38:57.744,111.11111111111111
1904-01-01 00:38:57.904,200.0
1904-01-01 00:38:58.864,200.0
1904-01-01 00:38:59.264,150.0
1904-01-01 00:38:59.284,200.0
1904-01-01 00:38:59.384,200.0
1904-01-01 00:38:59.524,200.0
1904-01-01 00:38:59.984,130.43478260869566
1904-01-01 00:39:00.024,200.0
1904-01-01 00:39:00.264,200.0
1904-01-01 00:39:00.504,200.0
1904-01-01 00:39:00.664,200.0
